LabVIEW Measurement	
Writer_Version	2
Reader_Version	2
Separator	Tab
Decimal_Separator	.
Multi_Headings	No
X_Columns	One
Time_Pref	Absolute
Operator	admin
Date	1903/12/31
Time	19:00:00
***End_of_Header***	
	
0.000000	-0.000289	3.633800	-0.000956	20.289982	19.845078
0.915494	-0.496030	3.617000	-1.794000	20.286479	19.849348
1.901950	-0.508390	3.617800	-1.839200	20.304909	19.858901
2.899550	-0.511380	3.616200	-1.849200	20.303454	19.861887
3.930374	-0.504150	3.615500	-1.822700	20.301185	19.863689
4.906118	-0.507180	3.614600	-1.833300	20.296622	19.891332
5.904902	-0.496870	3.615400	-1.796200	20.277501	19.895157
0.000000	0.001028	3.631600	0.003930	20.305035	19.903080
0.948389	0.000470	3.630700	0.001747	20.293564	19.908263
1.952178	0.002988	3.632700	0.010949	20.297956	19.912657
0.000000	1.159600	3.670200	4.256200	20.294404	19.937978
0.882637	1.033400	3.667900	3.792000	20.297217	19.933759
1.883626	0.996700	3.668900	3.658100	20.283156	19.951529
2.909608	1.014400	3.672200	3.726200	20.292358	19.962954
3.884917	0.993830	3.671500	3.650100	20.310368	19.992815
4.886728	1.030800	3.674000	3.788500	20.282317	19.989557
5.891636	0.998020	3.673300	3.667800	20.295469	20.014187
9.981942	0.010877	3.641400	0.039718	20.297961	20.014459
10.977602	0.001281	3.639700	0.004709	20.303191	20.041529
11.950444	0.005307	3.638700	0.019402	20.300898	20.030722
0.000000	0.025560	3.638700	0.092983	20.307929	20.049230
0.938600	-0.497210	3.620500	-1.800100	20.307831	20.053573
1.934772	-0.502100	3.619300	-1.817200	20.304699	20.074499
2.958880	-0.496270	3.618700	-1.795800	20.298631	20.065099
3.935327	-0.513300	3.618200	-1.857100	20.302777	20.079979
4.940908	-0.505310	3.617900	-1.828000	20.298337	20.089233
5.957984	-0.498200	3.617900	-1.802400	20.309734	20.113217
19.989381	0.006059	3.632900	0.022240	20.297525	20.103967
20.951861	-0.001323	3.634800	-0.004767	20.304458	20.124965
21.952032	-0.001299	3.634700	-0.004726	20.303545	20.142188
29.986285	0.000856	3.633700	0.003114	20.304533	20.140585
30.899698	-0.505480	3.617400	-1.828500	20.314501	20.145003
31.920673	-0.506400	3.614900	-1.830400	20.294123	20.135726
32.900107	-0.493660	3.615900	-1.785000	20.299280	20.132371
33.900354	-0.512170	3.614100	-1.851000	20.288722	20.130694
34.920407	-0.489010	3.615600	-1.767900	20.293755	20.122404
35.899424	-0.510220	3.613800	-1.843800	20.309324	20.128352
29.967354	-0.001410	3.630200	-0.005078	20.304736	20.107848
30.948548	0.004729	3.631300	0.017269	20.289441	20.102544
31.946085	0.003131	3.632200	0.011513	20.293561	20.088158
29.979749	1.020900	3.667300	3.745300	20.300791	20.085396
30.901125	0.970340	3.666200	3.559200	20.298351	20.075552
31.898803	1.009300	3.670200	3.705800	20.290652	20.056748
32.929165	0.978400	3.669800	3.592400	20.311847	20.040563
33.900182	0.992530	3.671700	3.646000	20.297982	20.030027
34.900236	0.988720	3.672200	3.632400	20.319174	20.020502
35.884097	1.016500	3.675000	3.737200	20.295910	20.003524
39.973535	0.005810	3.639900	0.021129	20.302105	20.000836
40.961392	0.005908	3.639200	0.021658	20.290091	19.992891
41.950890	0.007213	3.639300	0.026368	20.302206	19.985021
30.042978	0.029500	3.640600	0.107430	20.308374	19.968611
30.949599	-0.505010	3.619600	-1.827800	20.309879	19.961232
31.941597	-0.492530	3.618900	-1.782400	20.301763	19.946820
32.952593	-0.504760	3.618400	-1.826400	20.305538	19.921723
33.940226	-0.507760	3.617700	-1.836900	20.309611	19.923205
34.934660	-0.502080	3.616800	-1.815900	20.305269	19.895169
35.935980	-0.503330	3.617200	-1.820700	20.302481	19.899045
49.979838	0.003346	3.633800	0.012146	20.314991	19.871948
50.951542	-0.003079	3.634700	-0.011058	20.312106	19.884981
51.960156	0.005275	3.635000	0.019191	20.316769	19.841518
59.971784	-0.001068	3.634000	-0.003847	20.301080	19.831746
60.905440	-0.498930	3.616800	-1.804500	20.303104	19.841175
61.914944	-0.508460	3.616200	-1.838600	20.301550	19.821110
62.919183	-0.507330	3.616600	-1.834700	20.309100	19.810152
63.904341	-0.508100	3.615400	-1.837000	20.297629	19.799046
64.900134	-0.502210	3.613900	-1.814800	20.310607	19.796111
65.914245	-0.503690	3.614500	-1.820500	20.300468	19.766715
59.971832	-0.002294	3.630800	-0.008172	20.303725	19.761828
60.958040	0.005369	3.632300	0.019591	20.315297	19.736752
61.963950	-0.003305	3.632300	-0.011898	20.316729	19.743738
59.957046	1.050300	3.667700	3.852900	20.294477	19.713329
60.895268	1.002000	3.668100	3.676900	20.312438	19.705752
61.898820	0.945880	3.669100	3.471500	20.314906	19.704148
62.907390	0.996250	3.671100	3.657800	20.306790	19.677885
63.886481	0.975740	3.670700	3.583000	20.306323	19.685934
64.894816	0.991690	3.673100	3.644300	20.308001	19.659102
65.885905	1.004600	3.673900	3.694300	20.306128	19.655377
69.986502	-4.250000E-5	3.641000	-1.290000E-5	20.304056	19.647009
70.959919	0.002735	3.638900	0.010029	20.297174	19.631236
71.948617	0.008009	3.639200	0.029114	20.328802	19.636593
60.021862	0.004554	3.639600	0.016639	20.314668	19.610971
60.932312	-0.503810	3.619400	-1.823500	20.308476	19.624031
61.938717	-0.491810	3.619800	-1.780200	20.311659	19.634622
62.939770	-0.507270	3.619400	-1.835900	20.306851	19.632402
63.947370	-0.501090	3.618000	-1.812900	20.321900	19.637833
64.931881	-0.496180	3.617200	-1.794700	20.307543	19.638649
65.947195	-0.504030	3.616800	-1.822900	20.310258	19.652844
79.980989	0.004703	3.633300	0.017111	20.295704	19.659017
80.952343	0.005498	3.633500	0.020093	20.316255	19.645515
81.957000	-0.000864	3.635100	-0.003106	20.300443	19.651911
