LabVIEW Measurement	
Writer_Version	2
Reader_Version	2
Separator	Tab
Decimal_Separator	.
Multi_Headings	No
X_Columns	One
Time_Pref	Absolute
Operator	admin
Description	Clolumns are: time, Current, Voltage, Power, Battery Temp, and Chamber Temp
Date	2024/05/20
Time	16:31:59.8575258255004882812
***End_of_Header***	
	
Channels	6						
Samples	1	1	1	1	1	1	
Date	2024/06/08	2024/06/08	2024/06/08	2024/06/08	2024/06/08	2024/06/08	
Time	06:15:19.1479673385620117187	06:15:19.156108856201171875	06:15:19.1621069908142089844	06:15:19.1300630569458007812	06:15:19.1300630569458007812	06:15:19.1300630569458007812	
X_Dimension	Time	Time	Time	Time	Time	Time	
X0	0.0000000000000000E+0	0.0000000000000000E+0	0.0000000000000000E+0	0.0000000000000000E+0	0.0000000000000000E+0	0.0000000000000000E+0	
Delta_X	1.000000	1.000000	1.000000	1.000000	1.000000	1.000000	
***End_of_Header***							
X_Value	Untitled	Untitled 1	Untitled 2	Untitled 3	Untitled 4	Untitled 5	Comment
0.000000	0.020300	4.132400	0.084090	20.836686	0.000112	20.867979
0.996660	-3.017500	4.036800	-12.180000	20.849566	0.000112	20.875168
1.998617	-3.000700	4.033500	-12.102000	20.852618	0.000111	20.873005
2.998631	-3.014300	4.028700	-12.143000	20.846850	0.000115	20.893314
3.998972	-3.020400	4.026100	-12.159000	20.831696	0.000111	20.893806
4.998945	-2.992600	4.022700	-12.037000	20.845609	0.000110	20.882591
5.996185	-2.991600	4.020000	-12.026000	20.840860	0.000111	20.866463
6.997766	-2.990900	4.017300	-12.014000	20.845360	0.000110	20.909367
7.998740	-2.980000	4.017100	-11.970000	20.851661	0.000113	20.879635
8.998242	-3.007600	4.012400	-12.067000	20.857696	0.000108	20.878083
9.997680	-2.993600	4.011900	-12.009000	20.836059	0.000110	20.854076
11.000993	-2.979600	4.010100	-11.947000	20.846671	0.000110	20.905462
11.998318	-3.025600	4.009100	-12.129000	20.866170	0.000107	20.902203
12.998539	-3.003700	4.005700	-12.031000	20.863214	0.000110	20.890713
14.000078	-3.021000	4.005600	-12.099000	20.875300	0.000107	20.899006
15.000936	-2.995100	4.003700	-11.991000	20.863351	0.000106	20.894169
16.002535	-2.986800	4.004300	-11.959000	20.884757	0.000108	20.883334
16.998379	-2.987200	4.002800	-11.956000	20.891739	0.000108	20.904540
17.999889	-2.980300	4.001000	-11.923000	20.874930	0.000107	20.890575
19.001001	-3.004300	3.999100	-12.013000	20.898635	0.000108	20.915703
20.001594	-2.988700	3.998300	-11.949000	20.883293	0.000107	20.904628
21.005608	-2.990800	3.996800	-11.953000	20.887956	0.000107	20.885111
22.005670	-2.994000	3.996400	-11.964000	20.885930	0.000105	20.913903
23.002954	-2.991100	3.994300	-11.946000	20.890034	0.000104	20.914213
24.003999	-3.002900	3.992200	-11.988000	20.893241	0.000106	20.902723
25.003929	-2.995200	3.992100	-11.956000	20.903809	0.000106	20.880577
26.004753	-2.987800	3.991700	-11.926000	20.908327	0.000103	20.920654
27.009153	-3.024600	3.990900	-12.070000	20.922921	0.000106	20.924343
28.003809	-2.994000	3.989900	-11.944000	20.925265	0.000104	20.921472
29.004851	-3.011800	3.987600	-12.009000	20.926610	0.000105	20.917602
30.006201	-2.984300	3.989400	-11.904000	20.913275	0.000106	20.916594
31.004356	-2.985000	3.987500	-11.903000	20.943833	0.000102	20.930084
32.011712	-2.995900	3.985900	-11.940000	20.937317	0.000106	20.921198
33.008584	-2.995800	3.987400	-11.944000	20.954030	0.000104	20.904249
34.007954	-3.007900	3.985000	-11.985000	20.948307	0.000104	20.917016
35.010833	-3.030200	3.983600	-12.070000	20.962125	0.000106	20.927516
36.010166	-2.992600	3.982800	-11.918000	20.947928	0.000103	20.904311
37.014277	-3.016300	3.982600	-12.012000	20.944947	0.000106	20.928353
38.009993	-3.011600	3.982100	-11.992000	20.971444	0.000104	20.924509
39.010093	-3.003400	3.980800	-11.955000	20.957058	0.000105	20.916286
40.011181	-3.015200	3.981200	-12.003000	20.956058	0.000104	20.914811
41.008751	-3.003200	3.979400	-11.949000	20.962962	0.000104	20.920768
42.013787	-3.015000	3.978400	-11.994000	20.974728	0.000102	20.935379
43.017005	-3.001300	3.978600	-11.940000	20.967773	0.000102	20.925578
44.012627	-2.996100	3.977600	-11.917000	20.971806	0.000103	20.922975
45.011881	-3.011400	3.977600	-11.976000	20.983332	0.000103	20.933553
46.011176	-3.008200	3.975900	-11.959000	20.999743	0.000102	20.930052
47.016264	-3.003500	3.975500	-11.938000	20.979599	0.000101	20.944042
48.017134	-2.987900	3.975700	-11.879000	21.009439	9.938679E-5	20.930268
49.012048	-2.999200	3.975000	-11.921000	21.007225	0.000101	20.929949
50.013807	-2.987200	3.974400	-11.871000	21.019299	0.000103	20.950084
51.017058	-2.993800	3.974100	-11.896000	21.000777	0.000101	20.943413
52.016270	-2.998000	3.972700	-11.908000	21.010999	9.978282E-5	20.941309
53.022013	-2.991400	3.974000	-11.887000	21.023962	0.000101	20.925353
54.016786	-2.982000	3.972600	-11.846000	21.030436	0.000102	20.952687
55.017940	-3.008800	3.971800	-11.950000	21.020444	0.000102	20.927998
56.017199	-3.006400	3.971300	-11.938000	21.035321	9.836371E-5	20.917275
57.017579	-3.021000	3.970600	-11.994000	21.033467	9.984882E-5	20.922532
58.019992	-3.017000	3.971000	-11.979000	21.012393	9.938679E-5	20.928954
59.018992	-3.009300	3.968900	-11.943000	21.038311	9.955180E-5	20.938755
60.018956	-3.003200	3.970100	-11.923000	21.040233	9.988182E-5	20.952056
61.020097	-3.013000	3.967800	-11.953000	21.042396	9.862773E-5	20.920558
62.020844	-3.019700	3.968500	-11.983000	21.065762	9.938679E-5	20.924014
63.026931	-3.000200	3.968200	-11.904000	21.057255	9.918877E-5	20.937315
64.022777	-3.004500	3.967400	-11.920000	21.052626	9.658158E-5	20.935056
65.021445	-3.010400	3.967500	-11.943000	21.065314	0.000101	20.930203
66.025415	-2.992300	3.967200	-11.870000	21.051333	9.872674E-5	20.927126
67.023817	-3.012300	3.965300	-11.944000	21.041404	9.941979E-5	20.924307
68.023026	-3.016500	3.965700	-11.962000	21.073898	9.991483E-5	20.935470
69.022642	-2.987400	3.966700	-11.849000	21.072432	9.968381E-5	20.924522
70.023334	-3.011100	3.965400	-11.939000	21.081095	9.859473E-5	20.923229
71.024533	-2.998900	3.964400	-11.888000	21.069718	0.000100	20.909480
72.024747	-3.004000	3.964600	-11.909000	21.104934	0.000100	20.920522
73.024903	-3.016300	3.963800	-11.955000	21.100141	9.856173E-5	20.928056
74.024274	-2.994000	3.963700	-11.866000	21.091583	9.862773E-5	20.933245
75.022521	-3.009500	3.963000	-11.926000	21.095823	0.000101	20.926108
76.022020	-3.006400	3.964600	-11.919000	21.083550	9.908977E-5	20.920944
77.023421	-3.017600	3.962300	-11.956000	21.095298	0.000100	20.925108
78.022487	-3.012400	3.962100	-11.935000	21.124187	9.968381E-5	20.917022
79.026921	-3.001800	3.962200	-11.892000	21.119206	9.668059E-5	20.915833
80.023853	-2.996600	3.962100	-11.872000	21.118377	0.000101	20.901729
81.022941	-3.001500	3.961800	-11.890000	21.120481	9.767066E-5	20.901462
82.024460	-3.004600	3.960400	-11.898000	21.136553	9.750565E-5	20.889091
83.024745	-3.011200	3.960300	-11.924000	21.149740	9.965081E-5	20.912711
84.027065	-3.008500	3.959800	-11.912000	21.123074	9.826471E-5	20.923494
85.028018	-3.002000	3.960200	-11.888000	21.139397	9.595454E-5	20.918486
86.024652	-3.011600	3.958700	-11.921000	21.155918	9.935378E-5	20.910356
87.024802	-3.001000	3.959100	-11.880000	21.152152	0.000100	20.911805
88.028088	-3.024400	3.958200	-11.970000	21.128589	9.730764E-5	20.910994
89.026410	-3.000700	3.959500	-11.881000	21.151160	9.628456E-5	20.904175
90.028944	-3.003300	3.958800	-11.888000	21.156374	0.000101	20.881418
91.025459	-3.001300	3.959000	-11.882000	21.152245	9.935378E-5	20.888193
92.026953	-3.007600	3.958000	-11.903000	21.167465	0.000101	20.910528
93.029469	-3.009700	3.958200	-11.913000	21.159708	0.000101	20.893760
94.025048	-3.014900	3.956500	-11.928000	21.185752	9.945279E-5	20.899424
95.026770	-3.003900	3.956100	-11.883000	21.181779	9.885875E-5	20.890234
96.025638	-3.006200	3.955100	-11.890000	21.184260	0.000101	20.918318
97.026926	-2.990400	3.956900	-11.831000	21.158897	9.842972E-5	20.887734
98.027920	-2.992900	3.957200	-11.842000	21.191655	9.859473E-5	20.896320
99.026410	-3.003500	3.956300	-11.881000	21.170548	0.000100	20.903181
100.031248	-3.023300	3.955300	-11.957000	21.183665	9.974981E-5	20.879320
101.025305	-3.000000	3.955000	-11.864000	21.212156	9.763766E-5	20.888380
102.029887	-3.029300	3.953400	-11.975000	21.205684	9.908977E-5	20.878113
103.028988	-3.025200	3.954700	-11.962000	21.185465	9.925478E-5	20.896766
104.029806	-3.017500	3.954100	-11.931000	21.214343	9.955180E-5	20.898153
105.032656	-2.982200	3.953800	-11.790000	21.224485	9.892475E-5	20.891705
106.030291	-2.993700	3.953700	-11.835000	21.194332	9.806669E-5	20.879085
107.031593	-2.973500	3.953100	-11.754000	21.227053	9.763766E-5	20.881945
108.031676	-2.974600	3.953800	-11.760000	21.222572	9.654858E-5	20.883153
109.031190	-3.001500	3.953100	-11.864000	21.217451	9.826471E-5	20.870445
110.032749	-2.977200	3.953500	-11.769000	21.238418	9.760466E-5	20.864393
111.032658	-3.006400	3.951700	-11.879000	21.235246	9.889175E-5	20.868331
112.030395	-3.004500	3.951900	-11.873000	21.252653	9.628456E-5	20.883374
113.032983	-2.994700	3.952100	-11.834000	21.247921	9.582253E-5	20.876744
114.031452	-3.022700	3.950200	-11.940000	21.256815	9.925478E-5	20.885167
115.036607	-2.999800	3.952700	-11.856000	21.239898	9.763766E-5	20.870140
116.030543	-3.000500	3.950300	-11.852000	21.253418	9.836371E-5	20.888406
117.032215	-3.025600	3.950800	-11.953000	21.249815	9.796768E-5	20.887647
118.032670	-3.007800	3.949800	-11.880000	21.248824	9.899076E-5	20.897085
119.033562	-3.031600	3.949500	-11.973000	21.264343	9.790168E-5	20.879896
120.032671	-3.017400	3.948800	-11.914000	21.262844	9.786868E-5	20.854689
121.036520	-2.981400	3.949300	-11.773000	21.268221	9.836371E-5	20.863387
122.033217	-3.006300	3.949100	-11.872000	21.273934	9.882575E-5	20.866258
123.034665	-2.999800	3.949000	-11.845000	21.281077	9.978282E-5	20.875774
124.038039	-2.999500	3.948700	-11.843000	21.296459	9.925478E-5	20.882153
125.033133	-3.003400	3.949500	-11.861000	21.274131	9.922178E-5	20.878782
126.037950	-2.989200	3.948600	-11.802000	21.278086	9.892475E-5	20.882265
127.033797	-2.998900	3.948400	-11.840000	21.283144	9.813270E-5	20.862670
128.033032	-3.016100	3.947900	-11.906000	21.304162	9.862773E-5	20.880376
129.033710	-2.997200	3.947800	-11.832000	21.306695	9.753865E-5	20.868686
130.035262	-3.014500	3.947200	-11.898000	21.273510	9.786868E-5	20.871523
131.037544	-2.990100	3.948000	-11.804000	21.317018	9.958480E-5	20.857678
132.036441	-2.969500	3.948300	-11.724000	21.306272	9.648258E-5	20.872057
133.037409	-2.988700	3.947800	-11.798000	21.288237	9.991483E-5	20.856859
134.037895	-2.995300	3.947700	-11.824000	21.312227	9.694461E-5	20.849092
135.037349	-3.007600	3.945600	-11.866000	21.319913	9.869374E-5	20.871005
136.038937	-2.989300	3.946600	-11.797000	21.310520	9.859473E-5	20.856867
137.043173	-2.991200	3.946400	-11.803000	21.349220	9.628456E-5	20.883729
138.038285	-2.997400	3.946200	-11.827000	21.336139	9.928778E-5	20.872065
139.041188	-3.004600	3.945800	-11.854000	21.348564	9.991483E-5	20.863160
140.040555	-3.004600	3.945600	-11.854000	21.345884	9.681260E-5	20.848152
141.039265	-3.001900	3.944500	-11.840000	21.339612	9.902376E-5	20.863686
142.043553	-3.005400	3.944200	-11.853000	21.346221	9.879274E-5	20.877410
143.041633	-2.999200	3.946900	-11.837000	21.357792	9.945279E-5	20.856746
144.040119	0.000000	0.000000	0.000000	21.352898	9.915577E-5	20.857065
