LabVIEW Measurement	
Writer_Version	2
Reader_Version	2
Separator	Tab
Decimal_Separator	.
Multi_Headings	No
X_Columns	One
Time_Pref	Absolute
Operator	admin
Description	Clolumns are: time, Current, Voltage, Power, Battery Temp, and Chamber Temp
Date	2024/05/20
Time	14:38:09.5907945632934570313
***End_of_Header***	
	
Channels	6						
Samples	1	1	1	1	1	1	
Date	2024/06/11	2024/06/11	2024/06/11	2024/06/11	2024/06/11	2024/06/11	
Time	20:42:48.0797238349914550781	20:42:48.0858550071716308594	20:42:48.0907344818115234375	20:42:48.0643000602722167969	20:42:48.0643000602722167969	20:42:48.0643000602722167969	
X_Dimension	Time	Time	Time	Time	Time	Time	
X0	0.0000000000000000E+0	0.0000000000000000E+0	0.0000000000000000E+0	0.0000000000000000E+0	0.0000000000000000E+0	0.0000000000000000E+0	
Delta_X	1.000000	1.000000	1.000000	1.000000	1.000000	1.000000	
***End_of_Header***							
X_Value	Untitled	Untitled 1	Untitled 2	Untitled 3	Untitled 4	Untitled 5	Comment
0.000000	0.024083	2.966500	0.071461	20.789285	-0.000134	20.743291
1.003970	3.016800	3.082700	9.300500	20.791907	-0.000135	20.747810
2.001165	2.997200	3.095100	9.277500	20.777431	-0.000135	20.727643
3.000998	2.999000	3.104900	9.312900	20.781896	-0.000134	20.744911
4.002240	2.986400	3.112000	9.294200	20.778275	-0.000135	20.757886
5.002290	2.986500	3.119700	9.318200	20.804228	-0.000136	20.751596
6.002825	3.008200	3.128400	9.411100	20.767890	-0.000134	20.738017
7.008000	3.013600	3.135500	9.450100	20.773379	-0.000134	20.752515
8.003096	3.006800	3.141700	9.447400	20.760228	-0.000136	20.745054
9.005766	3.001600	3.148800	9.452000	20.769535	-0.000136	20.732549
10.002174	3.007200	3.154200	9.485600	20.783982	-0.000134	20.744627
11.003988	3.001400	3.160600	9.486900	20.786899	-0.000135	20.761769
12.005534	2.997300	3.165100	9.487500	20.804992	-0.000135	20.749516
13.002997	3.019900	3.172000	9.579700	20.781633	-0.000134	20.751761
14.004555	3.004900	3.176200	9.545200	20.777517	-0.000134	20.743851
15.004043	3.022800	3.183500	9.623200	20.780961	-0.000136	20.760572
16.002962	3.000300	3.188800	9.568400	20.771898	-0.000134	20.764312
17.005564	3.018300	3.192800	9.637500	20.772671	-0.000135	20.754652
18.006228	3.009700	3.198200	9.626100	20.765134	-0.000135	20.755177
19.004057	3.021400	3.202700	9.677400	20.775667	-0.000138	20.742949
20.006322	2.993000	3.206300	9.597500	20.778411	-0.000136	20.743797
21.004319	3.007000	3.213800	9.664400	20.776913	-0.000135	20.771223
22.002836	3.000400	3.216600	9.652400	20.772322	-0.000134	20.768055
23.008179	3.002400	3.220300	9.669600	20.770925	-0.000133	20.770925
24.005696	3.007500	3.226200	9.703600	20.766334	-0.000134	20.775343
25.006147	3.004200	3.230100	9.704400	20.768080	-0.000136	20.755752
26.006643	3.004600	3.234200	9.718100	20.753708	-0.000135	20.765562
27.007715	3.012600	3.238100	9.756000	20.770551	-0.000135	20.754904
28.010482	3.004800	3.241600	9.740500	20.778587	-0.000135	20.748240
29.008751	3.004100	3.245900	9.751000	20.765235	-0.000138	20.768554
30.009102	2.990300	3.250300	9.719500	20.777136	-0.000134	20.774291
31.014307	2.998800	3.253300	9.757000	20.775914	-0.000132	20.758370
32.009361	2.998000	3.258000	9.768100	20.775638	-0.000135	20.770896
33.009671	2.999800	3.261300	9.784100	20.768252	-0.000135	20.768726
34.012058	3.006200	3.265700	9.817700	20.775286	-0.000135	20.756319
35.009562	3.003600	3.269100	9.819400	20.771144	-0.000135	20.775885
36.010218	3.002600	3.271700	9.824400	20.765253	-0.000134	20.757666
37.010711	3.017700	3.276100	9.887300	20.763855	-0.000136	20.780925
38.011064	3.003100	3.279600	9.849800	20.768345	-0.000135	20.773087
39.010979	3.001900	3.282600	9.855100	20.767767	-0.000136	20.773931
40.011031	3.001200	3.285300	9.860700	20.774959	-0.000135	20.781597
41.011741	3.003300	3.288800	9.877800	20.760252	-0.000136	20.776374
42.012047	3.010000	3.291900	9.909100	20.787678	-0.000137	20.780566
43.012673	2.998000	3.295000	9.879300	20.805768	-0.000136	20.779215
44.012858	3.008800	3.298300	9.924600	20.788052	-0.000135	20.754386
45.017061	3.006200	3.301200	9.924200	20.777868	-0.000135	20.769807
46.014509	3.004400	3.304500	9.928700	20.795013	-0.000136	20.773202
47.013048	3.014700	3.307900	9.972800	20.797280	-0.000136	20.782581
48.013891	3.014000	3.312300	9.983700	20.781309	-0.000138	20.782732
49.015075	3.005000	3.312900	9.956700	20.791414	-0.000136	20.789517
50.016023	3.017100	3.316500	10.007000	20.791859	-0.000136	20.792333
51.016632	3.015900	3.320100	10.013000	20.798045	-0.000136	20.762957
52.015657	3.003200	3.321300	9.975100	20.802240	-0.000137	20.788964
53.016880	3.009000	3.323800	10.002000	20.792678	-0.000136	20.763754
54.015708	3.019100	3.327600	10.048000	20.804133	-0.000135	20.800340
55.014688	3.006300	3.330100	10.012000	20.844608	-0.000134	20.809047
56.017081	3.006600	3.333400	10.023000	20.799291	-0.000135	20.782222
57.017213	2.994800	3.334300	9.986500	20.814385	-0.000138	20.782617
58.017137	3.016600	3.337700	10.069000	20.810764	-0.000138	20.782789
59.017406	3.007300	3.340300	10.046000	20.812635	-0.000138	20.777548
60.017504	3.022200	3.343000	10.104000	20.812409	-0.000134	20.808616
61.019943	3.013800	3.345800	10.084000	20.830700	-0.000135	20.787552
62.018451	2.997800	3.347300	10.035000	20.821766	-0.000135	20.787153
63.017684	2.995400	3.350100	10.035000	20.846095	-0.000136	20.803896
64.019019	3.012800	3.353100	10.103000	20.822991	-0.000137	20.771309
65.018622	3.012400	3.355700	10.110000	20.834389	-0.000137	20.785077
66.018738	3.015600	3.358600	10.129000	20.857944	-0.000137	20.806263
67.023863	3.006300	3.360400	10.103000	20.846289	-0.000136	20.797926
68.019518	3.018900	3.363100	10.154000	20.850207	-0.000137	20.793310
69.022132	3.018600	3.365100	10.159000	20.847955	-0.000137	20.794851
70.022423	2.989500	3.367800	10.069000	20.853745	-0.000134	20.787839
71.019524	2.996300	3.368900	10.095000	20.853645	-0.000136	20.801963
72.024003	3.014800	3.374000	10.173000	20.871960	-0.000137	20.784718
73.021394	3.001900	3.373900	10.128000	20.869187	-0.000135	20.793324
74.020988	3.001100	3.375500	10.130000	20.871331	-0.000137	20.811590
75.021524	3.005300	3.377400	10.150000	20.889771	-0.000136	20.802057
76.020958	3.003800	3.382100	10.160000	20.865566	-0.000137	20.799661
77.021078	3.017700	3.383600	10.211000	20.887300	-0.000136	20.803379
78.021246	3.011500	3.385600	10.197000	20.896628	-0.000135	20.803224
79.021890	3.018000	3.388000	10.226000	20.869481	-0.000135	20.783188
80.022554	3.014000	3.388800	10.214000	20.886223	-0.000135	20.807517
81.021001	3.005300	3.391500	10.193000	20.901193	-0.000136	20.807790
82.020943	3.003900	3.393000	10.193000	20.897699	-0.000136	20.791493
83.022755	3.002100	3.394100	10.191000	20.912572	-0.000135	20.793091
84.021313	3.005300	3.397200	10.211000	20.909052	-0.000138	20.805218
85.021314	2.984800	3.398200	10.143000	20.899872	-0.000136	20.785605
86.022049	3.021700	3.401700	10.279000	20.914691	-0.000136	20.802323
87.022020	3.002800	3.402600	10.218000	20.901790	-0.000136	20.796532
88.030402	2.984700	3.405000	10.163000	20.917212	-0.000137	20.795835
89.021935	3.007600	3.407300	10.249000	20.909454	-0.000136	20.779542
90.024157	3.001800	3.408700	10.233000	20.933982	-0.000135	20.787951
91.024726	3.004200	3.411000	10.248000	20.936180	-0.000137	20.786356
92.024969	3.008900	3.413500	10.272000	20.933382	-0.000136	20.772652
93.024380	2.999900	3.413500	10.241000	20.942318	-0.000136	20.784908
94.027761	2.997000	3.415600	10.238000	20.934255	-0.000135	20.764990
95.025373	2.993900	3.418500	10.235000	20.949027	-0.000136	20.788773
96.027295	3.000000	3.419700	10.260000	20.926619	-0.000136	20.755456
97.026307	2.988600	3.420900	10.224000	20.954896	-0.000136	20.781366
98.026960	2.990200	3.423300	10.237000	20.963002	-0.000134	20.773826
99.030495	2.989300	3.423800	10.235000	20.948557	-0.000136	20.779768
100.024954	3.005300	3.426100	10.297000	20.959583	-0.000137	20.769933
101.027135	2.996400	3.428500	10.274000	20.964525	-0.000136	20.781039
102.028238	3.003800	3.430000	10.304000	20.967919	-0.000136	20.755510
103.028706	2.993200	3.430400	10.268000	20.992219	-0.000137	20.786453
104.030928	2.991900	3.432500	10.270000	20.984788	-0.000135	20.778072
105.028951	2.996300	3.434000	10.290000	20.985636	-0.000139	20.771808
106.028403	3.001500	3.436000	10.314000	21.000379	-0.000137	20.766164
107.033682	2.986600	3.436300	10.263000	21.001629	-0.000136	20.772630
108.028800	2.989400	3.437800	10.277000	21.002699	-0.000138	20.751415
109.028912	2.997200	3.439400	10.309000	20.998256	-0.000135	20.772102
110.030009	2.993200	3.441000	10.300000	21.015226	-0.000138	20.759203
111.027981	3.006000	3.442400	10.349000	20.998303	-0.000136	20.766459
112.027865	3.006400	3.445200	10.359000	21.013599	-0.000135	20.763740
113.028604	2.991000	3.445100	10.305000	21.030065	-0.000137	20.765036
114.029265	2.996000	3.447200	10.328000	21.036102	-0.000137	20.774394
115.031884	3.007200	3.448400	10.370000	21.022829	-0.000139	20.766807
116.029616	2.998700	3.448800	10.343000	21.040096	-0.000137	20.758474
117.029826	3.001400	3.451700	10.360000	21.035054	-0.000137	20.766707
118.030144	2.997900	3.452400	10.350000	21.040096	-0.000137	20.771276
119.029410	3.013600	3.453600	10.408000	21.054939	-0.000136	20.762888
120.031225	3.010700	3.455800	10.405000	21.062427	-0.000136	20.779387
121.033864	2.997400	3.457000	10.363000	21.074572	-0.000137	20.737955
122.030411	3.018100	3.459200	10.441000	21.083432	-0.000138	20.764835
123.031335	2.996100	3.457700	10.360000	21.072152	-0.000136	20.773941
124.030361	2.991000	3.459400	10.349000	21.073872	-0.000136	20.770920
125.030960	3.004800	3.461000	10.401000	21.077966	-0.000136	20.760316
126.034023	2.997700	3.463200	10.382000	21.077790	-0.000136	20.744019
127.031905	2.998400	3.462000	10.381000	21.091885	-0.000138	20.742944
128.031203	3.000400	3.464600	10.396000	21.103090	-0.000136	20.748462
129.031208	3.013400	3.465300	10.443000	21.101018	-0.000137	20.746389
130.031462	2.997700	3.465700	10.390000	21.096177	-0.000137	20.740599
131.035280	2.990800	3.467000	10.370000	21.119706	-0.000135	20.759393
132.030345	2.996900	3.468200	10.395000	21.114761	-0.000135	20.771991
133.031807	3.020800	3.470300	10.483000	21.141431	-0.000135	20.719009
134.032975	2.987200	3.469400	10.364000	21.125117	-0.000135	20.755323
135.031203	3.003700	3.471100	10.427000	21.114190	-0.000137	20.748186
136.032095	2.999200	3.473400	10.418000	21.131402	-0.000135	20.765403
137.035048	2.983500	3.473000	10.362000	21.130680	-0.000136	20.744292
138.031294	3.011700	3.473900	10.463000	21.139413	-0.000136	20.748760
139.031921	3.017200	3.475700	10.487000	21.158097	-0.000136	20.765080
140.031403	3.011300	3.475200	10.465000	21.161092	-0.000138	20.742944
141.031731	3.008700	3.478400	10.467000	21.145723	-0.000137	20.747011
142.033511	3.007600	3.477000	10.458000	21.172838	-0.000137	20.736202
143.031378	3.009200	3.479700	10.472000	21.151260	-0.000136	20.735954
144.030916	3.004300	3.480200	10.456000	21.184666	-0.000135	20.730016
145.031524	2.984300	3.480300	10.387000	21.191848	-0.000137	20.743839
146.032145	3.011200	3.481700	10.485000	21.208685	-0.000135	20.748354
147.033956	3.000300	3.482900	10.450000	21.190749	-0.000138	20.761232
148.035954	3.008100	3.484800	10.483000	21.216047	-0.000137	20.735329
149.033463	3.004700	3.484400	10.470000	21.230787	-0.000135	20.737747
150.033991	3.010000	3.486000	10.494000	21.196861	-0.000135	20.736525
151.033434	3.022700	3.485800	10.537000	21.212725	-0.000135	20.745283
152.034956	3.001900	3.487000	10.469000	21.224948	-0.000135	20.733802
153.035379	3.006900	3.487300	10.487000	21.216172	-0.000136	20.746835
154.035773	3.003300	3.487900	10.476000	21.246227	-0.000137	20.748926
155.035790	2.990300	3.488600	10.433000	21.243634	-0.000136	20.732581
156.036383	2.997900	3.489300	10.461000	21.239641	-0.000137	20.739967
157.037051	2.988100	3.489600	10.428000	21.259620	-0.000136	20.735771
158.046140	2.996700	3.493900	10.471000	21.253907	-0.000135	20.731004
159.039812	2.995000	3.492900	10.462000	21.265552	-0.000138	20.739809
160.038912	2.982100	3.492800	10.416000	21.270719	-0.000135	20.761100
161.039587	2.992700	3.495200	10.460000	21.288280	-0.000135	20.723191
162.039007	3.005400	3.495100	10.505000	21.286607	-0.000136	20.713456
163.041187	2.999600	3.496700	10.489000	21.284611	-0.000135	20.742280
164.044191	2.999400	3.496400	10.488000	21.313001	-0.000137	20.733224
165.039864	2.999600	3.499000	10.496000	21.324325	-0.000134	20.741709
166.041091	2.997000	3.497900	10.484000	21.287278	-0.000138	20.733569
167.041282	3.009400	3.499300	10.531000	21.331183	-0.000136	20.747147
168.041269	2.986900	3.499800	10.454000	21.316735	-0.000137	20.705664
169.045262	3.007300	3.501500	10.531000	21.321898	-0.000137	20.718417
170.041698	2.998800	3.501000	10.500000	21.337412	-0.000138	20.724929
171.043828	3.011900	3.502000	10.549000	21.341731	-0.000137	20.723561
172.044219	3.006200	3.502700	10.531000	21.336292	-0.000137	20.738982
173.044970	3.004400	3.503400	10.526000	21.383009	-0.000135	20.731194
174.047960	2.986500	3.504600	10.467000	21.363877	-0.000138	20.724854
175.048885	2.994800	3.505200	10.498000	21.386973	-0.000135	20.713822
176.045000	3.009900	3.505200	10.551000	21.366096	-0.000134	20.716168
177.047997	2.985700	3.506500	10.470000	21.383279	-0.000136	20.719135
178.047742	3.008500	3.508900	10.557000	21.387544	-0.000137	20.709177
179.047998	3.003700	3.508400	10.539000	21.401133	-0.000135	20.727516
180.051088	3.001200	3.508000	10.529000	21.416449	-0.000138	20.731934
181.049526	2.996200	3.509400	10.516000	21.417120	-0.000139	20.704629
182.049743	2.995000	3.509400	10.512000	21.408611	-0.000136	20.734525
183.050359	3.006400	3.511700	10.558000	21.435401	-0.000138	20.710118
184.051510	2.991100	3.510900	10.502000	21.453355	-0.000135	20.720023
185.055410	3.004800	3.512000	10.554000	21.435645	-0.000137	20.717001
186.052005	3.014400	3.513600	10.592000	21.464376	-0.000134	20.717774
187.051805	2.997500	3.513500	10.532000	21.457365	-0.000137	20.714077
188.052777	3.003200	3.515000	10.557000	21.471607	-0.000137	20.722164
189.052452	3.011300	3.514200	10.582000	21.466268	-0.000137	20.697380
190.052192	3.002000	3.514800	10.552000	21.489287	-0.000136	20.707137
191.055931	3.000200	3.516100	10.549000	21.481454	-0.000136	20.697876
192.050900	3.000200	3.515700	10.548000	21.478589	-0.000135	20.702122
193.055017	2.992900	3.517000	10.527000	21.475721	-0.000137	20.731971
194.052601	2.989200	3.516300	10.511000	21.519241	-0.000134	20.711031
195.053108	2.991000	3.517800	10.522000	21.515249	-0.000136	20.706088
196.056530	3.003600	3.519300	10.572000	21.523154	-0.000137	20.702144
197.051702	3.017900	3.520000	10.623000	21.533629	-0.000136	20.693659
198.053648	3.003600	3.520900	10.576000	21.557871	-0.000135	20.709382
199.053995	2.991300	3.520300	10.531000	21.549191	-0.000136	20.704490
200.054559	3.001100	3.520700	10.567000	21.563284	-0.000136	20.727602
201.057190	2.988100	3.521300	10.522000	21.560789	-0.000136	20.700448
202.054926	2.999200	3.522900	10.566000	21.562311	-0.000135	20.702445
203.055891	3.004500	3.524200	10.589000	21.581487	-0.000136	20.690339
204.061187	2.975900	3.522400	10.484000	21.595853	-0.000134	20.693809
205.056184	2.994800	3.524200	10.555000	21.601711	-0.000135	20.693508
206.057184	3.002000	3.524300	10.580000	21.582259	-0.000136	20.686370
207.058742	2.997200	3.524500	10.564000	21.591535	-0.000137	20.715568
208.056823	2.985300	3.524800	10.523000	21.621012	-0.000134	20.692434
209.057169	2.998400	3.525900	10.572000	21.630409	-0.000134	20.698045
210.059222	2.991100	3.525200	10.545000	21.620183	-0.000137	20.716736
211.059199	3.002500	3.526000	10.588000	21.641608	-0.000134	20.696924
212.060167	2.990400	3.527200	10.548000	21.648389	-0.000134	20.692804
213.061543	3.024600	3.528100	10.672000	21.654071	-0.000132	20.688532
214.061311	3.013200	3.527100	10.628000	21.648385	-0.000135	20.689007
215.060332	3.002600	3.527800	10.593000	21.677090	-0.000133	20.702086
216.061652	3.015100	3.528300	10.639000	21.655543	-0.000136	20.683841
217.063058	3.002400	3.528400	10.594000	21.687510	-0.000133	20.690228
218.064939	3.017400	3.528700	10.648000	21.695087	-0.000134	20.683586
219.062932	2.991600	3.529600	10.560000	21.715563	-0.000135	20.690803
220.064174	3.006500	3.530700	10.616000	21.697434	-0.000133	20.689729
221.062364	2.983700	3.530300	10.534000	21.710327	-0.000133	20.675603
222.060645	2.997200	3.530800	10.583000	21.737429	-0.000135	20.687555
223.064689	3.005300	3.530500	10.611000	21.719149	-0.000137	20.681588
224.063892	3.009500	3.532500	10.632000	21.729400	-0.000133	20.684735
225.062611	3.014600	3.533100	10.651000	21.749919	-0.000134	20.655008
226.062028	2.993700	3.531700	10.573000	21.741840	-0.000134	20.684383
227.063188	3.022600	3.533700	10.682000	21.765951	-0.000133	20.682911
228.067271	3.006100	3.533000	10.621000	21.789413	-0.000133	20.683158
229.062764	3.007900	3.533600	10.629000	21.767021	-0.000135	20.708165
230.064185	2.996300	3.534100	10.590000	21.789739	-0.000132	20.673527
231.066688	3.010200	3.536000	10.645000	21.772085	-0.000135	20.677195
232.063600	3.007200	3.535600	10.633000	21.810056	-0.000137	20.683906
233.065376	3.022200	3.536900	10.690000	21.788964	-0.000134	20.667535
234.068099	3.003200	3.534900	10.617000	21.828485	-0.000133	20.685281
235.065860	3.000300	3.536700	10.612000	21.822998	-0.000134	20.675521
236.065991	3.012000	3.536600	10.653000	21.837583	-0.000133	20.684430
237.066247	2.996800	3.535800	10.597000	21.823895	-0.000135	20.667883
238.064931	2.984900	3.537800	10.561000	21.840849	-0.000135	20.662092
239.065792	2.999600	3.536700	10.610000	21.848253	-0.000134	20.665236
240.066116	3.007000	3.538200	10.641000	21.855735	-0.000135	20.682210
241.066206	3.001800	3.538400	10.623000	21.874084	-0.000133	20.697259
242.069301	2.997900	3.538400	10.609000	21.864686	-0.000134	20.663666
243.065939	3.001300	3.540000	10.626000	21.878972	-0.000133	20.666586
244.065599	3.010500	3.540600	10.659000	21.890115	-0.000134	20.661144
245.066951	3.010500	3.540600	10.659000	21.911952	-0.000134	20.654078
246.065864	2.994200	3.540500	10.602000	21.917238	-0.000136	20.668379
247.065338	3.003300	3.539700	10.631000	21.911830	-0.000133	20.664388
248.065322	2.996500	3.541100	10.612000	21.920830	-0.000135	20.649213
249.066009	2.995700	3.541400	10.610000	21.925316	-0.000135	20.680734
250.067919	3.000600	3.541800	10.629000	21.928707	-0.000136	20.671799
251.065610	3.014100	3.541700	10.676000	21.944891	-0.000135	20.667610
252.064483	3.002300	3.541700	10.634000	21.922929	-0.000133	20.691622
253.066894	3.002300	3.543300	10.639000	21.956482	-0.000135	20.655029
254.066628	3.004000	3.543400	10.645000	21.958976	-0.000134	20.664165
255.068435	3.006400	3.543000	10.652000	21.968299	-0.000134	20.676344
256.071208	3.004100	3.544800	10.650000	21.969368	-0.000134	20.665559
257.067925	2.995800	3.543800	10.617000	21.988143	-0.000136	20.661119
258.069103	3.010200	3.545600	10.674000	21.991785	-0.000136	20.655281
259.067108	3.007300	3.544300	10.659000	22.007089	-0.000135	20.660645
260.067449	3.011300	3.545700	10.678000	21.992682	-0.000136	20.672776
261.068468	3.017100	3.545500	10.698000	22.024941	-0.000136	20.680888
262.067420	3.001900	3.544900	10.642000	22.011431	-0.000136	20.664043
263.067535	3.017900	3.545800	10.701000	22.034614	-0.000135	20.660224
264.067808	2.993100	3.546500	10.616000	22.033516	-0.000135	20.643950
265.067053	3.002600	3.546900	10.651000	22.061116	-0.000134	20.655460
266.074318	3.008600	3.547600	10.674000	22.066050	-0.000135	20.662297
267.068992	3.001400	3.546100	10.644000	22.055458	-0.000135	20.656908
268.069803	3.012100	3.547900	10.688000	22.077270	-0.000134	20.668314
269.072695	3.001200	3.546300	10.644000	22.085175	-0.000134	20.660580
270.070529	3.021300	3.548400	10.722000	22.063664	-0.000135	20.664650
271.071292	2.999500	3.549300	10.647000	22.085677	-0.000135	20.670567
272.074222	3.004300	3.549500	10.664000	22.093700	-0.000134	20.679074
273.071252	3.000900	3.548400	10.649000	22.107313	-0.000137	20.654767
274.071533	3.011300	3.548300	10.686000	22.111428	-0.000136	20.658887
275.071235	3.006100	3.549500	10.670000	22.116164	-0.000135	20.646558
276.071244	3.012400	3.550700	10.697000	22.114069	-0.000135	20.668645
277.074887	3.008400	3.549600	10.679000	22.119081	-0.000136	20.651850
278.071647	3.002900	3.549500	10.660000	22.134889	-0.000137	20.671472
279.071264	3.000300	3.550500	10.653000	22.126486	-0.000137	20.642193
280.070910	3.011900	3.551400	10.697000	22.139823	-0.000137	20.663134
281.070923	3.005900	3.552100	10.678000	22.160883	-0.000136	20.669047
282.072921	3.002100	3.550900	10.660000	22.154106	-0.000135	20.657993
283.072796	3.010500	3.551200	10.692000	22.174592	-0.000136	20.674712
284.071016	3.006300	3.553500	10.683000	22.191544	-0.000136	20.650905
285.073359	2.995900	3.552200	10.643000	22.188301	-0.000136	20.671842
286.072944	2.996700	3.552800	10.647000	22.176038	-0.000138	20.672841
287.072503	2.990300	3.554600	10.630000	22.189898	-0.000136	20.666802
288.073503	2.994800	3.553800	10.644000	22.196603	-0.000138	20.650280
289.072831	3.007000	3.553700	10.687000	22.205996	-0.000137	20.675334
290.072959	3.002000	3.553100	10.667000	22.210186	-0.000139	20.663881
291.072817	2.991700	3.553900	10.633000	22.223618	-0.000136	20.666424
292.074029	3.007600	3.554200	10.690000	22.245402	-0.000136	20.655992
293.075038	3.007400	3.556100	10.695000	22.210455	-0.000137	20.651347
294.074685	3.005000	3.555000	10.684000	22.239317	-0.000137	20.658435
295.074298	3.015200	3.556600	10.724000	22.261574	-0.000140	20.657961
296.078506	3.003300	3.554700	10.676000	22.232067	-0.000139	20.686266
297.074150	2.986500	3.557100	10.624000	22.257435	-0.000138	20.647176
298.074222	3.000500	3.556100	10.671000	22.258708	-0.000136	20.674533
299.076215	3.002600	3.556900	10.681000	22.264294	-0.000138	20.671590
300.074211	2.994300	3.556900	10.651000	22.261922	-0.000140	20.667793
301.073924	2.994900	3.556800	10.653000	22.274407	-0.000137	20.661801
302.073386	2.999800	3.557400	10.672000	22.284775	-0.000139	20.694471
303.075482	3.006000	3.559100	10.699000	22.291354	-0.000139	20.656958
304.078768	3.002800	3.557600	10.684000	22.284402	-0.000138	20.660429
305.076473	2.997800	3.559600	10.671000	22.318844	-0.000138	20.644654
306.077267	3.008100	3.559600	10.708000	22.315927	-0.000137	20.650743
307.080711	3.003900	3.560200	10.695000	22.305359	-0.000139	20.672406
308.076468	3.002500	3.560100	10.690000	22.316749	-0.000137	20.663421
309.080944	3.002000	3.560900	10.691000	22.319267	-0.000137	20.671160
310.082612	2.994900	3.560100	10.663000	22.335414	-0.000139	20.652712
311.080008	2.984900	3.560200	10.627000	22.325344	-0.000140	20.661596
312.078838	2.997500	3.561200	10.676000	22.359584	-0.000137	20.647517
313.078438	2.989100	3.562500	10.649000	22.354250	-0.000139	20.667309
314.080938	2.990900	3.560800	10.650000	22.365414	-0.000138	20.670427
315.082783	3.003200	3.562200	10.699000	22.368875	-0.000139	20.634534
316.080706	2.978600	3.561800	10.610000	22.382833	-0.000138	20.643296
317.080700	3.005300	3.563600	10.710000	22.388188	-0.000136	20.663835
318.082839	2.992400	3.562000	10.659000	22.383228	-0.000139	20.661712
319.082920	3.012300	3.563100	10.734000	22.393121	-0.000137	20.648858
320.086637	2.997800	3.563400	10.683000	22.397181	-0.000137	20.663357
321.083078	3.002800	3.565100	10.706000	22.402910	-0.000139	20.662456
322.083751	3.010100	3.565300	10.733000	22.412082	-0.000139	20.671167
323.084891	2.996100	3.565700	10.683000	22.427653	-0.000139	20.653094
324.083478	3.012600	3.565200	10.741000	22.407293	-0.000138	20.642661
325.083232	3.012400	3.565700	10.742000	22.446241	-0.000139	20.665071
326.085986	3.010600	3.566500	10.738000	22.427474	-0.000137	20.680892
327.084967	3.005100	3.566200	10.717000	22.437442	-0.000138	20.653888
328.086226	2.987800	3.566300	10.656000	22.433877	-0.000137	20.665966
329.085729	3.015600	3.567300	10.758000	22.455330	-0.000138	20.654732
330.086283	2.997500	3.566900	10.693000	22.446758	-0.000139	20.658001
331.087435	3.003600	3.567300	10.715000	22.462156	-0.000138	20.665837
332.086030	3.009100	3.568800	10.740000	22.462131	-0.000138	20.646843
333.085322	3.011000	3.568300	10.745000	22.471374	-0.000137	20.679337
334.085120	3.013100	3.567800	10.751000	22.488692	-0.000138	20.644993
335.085815	2.995700	3.568100	10.689000	22.482734	-0.000137	20.661314
336.087337	3.007200	3.569200	10.734000	22.493100	-0.000140	20.657470
337.090019	2.996600	3.570000	10.699000	22.512009	-0.000137	20.643689
338.087939	3.009900	3.571200	10.749000	22.503462	-0.000138	20.675436
339.089485	2.991800	3.569300	10.680000	22.494169	-0.000139	20.660437
340.086823	3.006500	3.569900	10.733000	22.516320	-0.000139	20.661760
341.086733	2.993100	3.571500	10.691000	22.532263	-0.000139	20.643111
342.090398	2.996900	3.571100	10.702000	22.517289	-0.000138	20.667472
343.089032	2.983400	3.571200	10.655000	22.508068	-0.000138	20.655864
344.089169	2.988200	3.570900	10.672000	22.529244	-0.000137	20.681817
345.088897	2.998500	3.573300	10.715000	22.527504	-0.000138	20.668219
346.091447	2.985200	3.573300	10.668000	22.542202	-0.000138	20.655911
347.093409	3.006300	3.573800	10.745000	22.554285	-0.000138	20.673705
348.090127	2.992600	3.573800	10.696000	22.562603	-0.000138	20.661645
349.093271	3.009300	3.573900	10.755000	22.564500	-0.000140	20.683462
350.094978	2.994000	3.576100	10.708000	22.574764	-0.000139	20.668611
351.093475	3.008500	3.574500	10.755000	22.565192	-0.000138	20.664713
352.095775	2.997800	3.575100	10.718000	22.569127	-0.000137	20.661541
353.097976	2.993600	3.574800	10.703000	22.566634	-0.000137	20.655725
354.094930	3.006300	3.576700	10.753000	22.586590	-0.000137	20.661488
355.097000	3.007900	3.577900	10.762000	22.596980	-0.000137	20.666205
356.093318	3.003800	3.578400	10.750000	22.596729	-0.000136	20.672592
357.094801	3.011500	3.577200	10.773000	22.620342	-0.000139	20.657835
358.096850	2.988800	3.576100	10.689000	22.620869	-0.000137	20.666898
359.093739	2.997600	3.577800	10.725000	22.636713	-0.000137	20.652421
360.094147	2.985500	3.578500	10.684000	22.611498	-0.000136	20.663202
361.094476	2.992600	3.578600	10.710000	22.624104	-0.000137	20.673932
362.094606	2.998000	3.579700	10.733000	22.632944	-0.000139	20.689901
363.098198	2.982300	3.578900	10.674000	22.631700	-0.000138	20.662099
364.096927	3.000200	3.579200	10.739000	22.636380	-0.000136	20.665365
365.094612	2.985100	3.580200	10.688000	22.649287	-0.000135	20.676871
366.096670	2.997600	3.581800	10.737000	22.658307	-0.000138	20.700606
367.096185	3.002500	3.582000	10.756000	22.654193	-0.000138	20.675147
368.095547	3.020400	3.581400	10.818000	22.678712	-0.000137	20.676947
369.098344	3.024700	3.582300	10.836000	22.668144	-0.000137	20.667309
370.097658	3.004700	3.582700	10.765000	22.672777	-0.000137	20.686176
371.095656	2.993400	3.582600	10.725000	22.686803	-0.000137	20.694062
372.096096	2.984100	3.581100	10.687000	22.687075	-0.000138	20.682954
373.098767	2.989500	3.581800	10.709000	22.704938	-0.000139	20.665757
374.100776	3.014800	3.584300	10.807000	22.693398	-0.000138	20.682175
375.100847	2.990500	3.583900	10.718000	22.698107	-0.000137	20.675985
376.099944	3.010700	3.586000	10.797000	22.711383	-0.000137	20.673636
377.104677	3.000100	3.585500	10.757000	22.706254	-0.000137	20.672292
378.101774	3.004200	3.585300	10.772000	22.738912	-0.000135	20.656640
379.102747	2.991400	3.586400	10.729000	22.725185	-0.000138	20.691257
380.106479	2.998500	3.585700	10.752000	22.725182	-0.000137	20.685089
381.105388	3.008400	3.586400	10.790000	22.728696	-0.000137	20.678177
382.103942	3.004800	3.585800	10.775000	22.722313	-0.000138	20.673205
383.104295	3.000900	3.587000	10.765000	22.738633	-0.000138	20.681967
384.105000	3.002900	3.585400	10.767000	22.751439	-0.000138	20.660653
385.106496	3.002400	3.587800	10.773000	22.756272	-0.000138	20.689206
386.104166	3.012900	3.587700	10.810000	22.756868	-0.000138	20.685534
387.104011	3.013500	3.588100	10.814000	22.767055	-0.000138	20.701431
388.104703	2.995000	3.589600	10.751000	22.771416	-0.000136	20.682563
389.104970	3.005500	3.588400	10.786000	22.775773	-0.000138	20.690248
390.107284	3.005700	3.589200	10.789000	22.782697	-0.000136	20.677743
391.107595	3.016400	3.589300	10.828000	22.790471	-0.000138	20.685057
392.106466	3.017000	3.590900	10.835000	22.798292	-0.000138	20.684356
393.108292	3.008900	3.590600	10.804000	22.790439	-0.000139	20.670799
394.107099	2.999500	3.591400	10.773000	22.823945	-0.000139	20.672121
395.107526	3.011900	3.591600	10.818000	22.794524	-0.000136	20.709507
396.109339	3.000800	3.591000	10.777000	22.809695	-0.000135	20.679658
397.107248	3.002600	3.591700	10.785000	22.801946	-0.000137	20.682801
398.106396	3.012100	3.591300	10.818000	22.817491	-0.000137	20.684149
399.108171	2.997900	3.593000	10.773000	22.803087	-0.000139	20.695325
400.109017	2.990400	3.593300	10.746000	22.818086	-0.000138	20.705610
401.112740	2.983900	3.592600	10.721000	22.825111	-0.000137	20.693680
402.110568	2.998700	3.593200	10.776000	22.866288	-0.000136	20.716915
403.110191	3.002000	3.593700	10.789000	22.845660	-0.000138	20.705732
404.110895	2.985500	3.593300	10.728000	22.826029	-0.000137	20.681322
405.109398	2.988800	3.594500	10.743000	22.849967	-0.000137	20.694398
406.112923	2.974800	3.593700	10.691000	22.846901	-0.000137	20.698914
407.113024	3.000000	3.594900	10.785000	22.873130	-0.000138	20.693422
408.111744	2.994700	3.595500	10.769000	22.863266	-0.000139	20.704403
409.114611	3.004800	3.595600	10.805000	22.883342	-0.000138	20.698911
410.112744	3.013900	3.596400	10.840000	22.868121	-0.000140	20.693145
411.112862	3.008500	3.595400	10.817000	22.876662	-0.000139	20.701228
412.117344	3.013400	3.597300	10.841000	22.872205	-0.000140	20.704350
413.113791	2.992700	3.596500	10.764000	22.882840	-0.000140	20.708366
414.114093	2.992900	3.597300	10.767000	22.896393	-0.000137	20.714358
415.114513	3.001400	3.598600	10.802000	22.894195	-0.000139	20.703147
416.114961	2.983400	3.598100	10.735000	22.924560	-0.000140	20.695161
417.115526	2.995700	3.599200	10.783000	22.904532	-0.000138	20.699752
418.114398	3.000800	3.599700	10.802000	22.910682	-0.000138	20.711604
419.114759	2.987400	3.599800	10.754000	22.922391	-0.000139	20.702472
420.118332	2.997500	3.600200	10.792000	22.933944	-0.000140	20.685595
421.115723	2.992300	3.598600	10.769000	22.921463	-0.000137	20.694903
422.115743	3.011900	3.598700	10.839000	22.938899	-0.000138	20.710476
423.119276	3.009300	3.601900	10.840000	22.928086	-0.000138	20.700116
424.115684	2.989700	3.599900	10.763000	22.943058	-0.000138	20.700417
425.115470	2.993000	3.600900	10.778000	22.958751	-0.000137	20.681525
426.116470	3.002500	3.601400	10.814000	22.957977	-0.000137	20.720107
427.117196	2.990700	3.601700	10.772000	22.982137	-0.000138	20.717287
428.118988	3.002800	3.602800	10.819000	22.962806	-0.000138	20.712143
429.115659	3.014400	3.603800	10.864000	22.986522	-0.000139	20.710300
430.116534	2.995400	3.603600	10.795000	22.954767	-0.000139	20.705037
431.116397	2.991800	3.604400	10.784000	22.989885	-0.000139	20.704186
432.116520	2.994800	3.603700	10.793000	22.972823	-0.000139	20.717438
433.119728	2.984300	3.603800	10.756000	22.984056	-0.000139	20.717787
434.121074	3.016600	3.605300	10.876000	23.021965	-0.000139	20.705034
435.118234	3.005300	3.605100	10.835000	23.010112	-0.000138	20.715444
436.119903	3.001400	3.605300	10.821000	22.997830	-0.000140	20.710250
437.118988	3.002500	3.604800	10.824000	23.012876	-0.000140	20.712049
438.120790	3.002600	3.606700	10.830000	23.021269	-0.000139	20.729943
439.123433	2.972300	3.605800	10.718000	23.021297	-0.000139	20.720962
440.120055	3.021800	3.607600	10.902000	23.017389	-0.000140	20.722736
441.120380	2.995900	3.605700	10.803000	23.027173	-0.000139	20.737756
442.119711	3.004600	3.607700	10.840000	23.033375	-0.000139	20.707932
443.121551	2.982700	3.607500	10.761000	23.054323	-0.000138	20.726551
444.127224	3.001900	3.608800	10.834000	23.036262	-0.000141	20.720308
445.121011	2.977300	3.608000	10.743000	23.067372	-0.000139	20.733937
446.121591	2.997600	3.609000	10.819000	23.058979	-0.000139	20.703241
447.124027	2.991900	3.608300	10.797000	23.054595	-0.000139	20.741050
448.121245	3.002600	3.609300	10.838000	23.063464	-0.000140	20.748040
449.121741	2.994700	3.609100	10.809000	23.076241	-0.000140	20.746618
450.121503	3.004600	3.611100	10.851000	23.090985	-0.000139	20.735313
451.121134	3.001500	3.610900	10.838000	23.078184	-0.000140	20.759470
452.121713	2.985300	3.610300	10.779000	23.089092	-0.000137	20.729148
453.121332	2.991500	3.610800	10.802000	23.086404	-0.000139	20.735464
454.122259	3.002600	3.610600	10.842000	23.112480	-0.000138	20.720814
455.125306	3.007500	3.611000	10.861000	23.104987	-0.000141	20.745076
456.121115	3.002200	3.610800	10.841000	23.105708	-0.000140	20.742953
457.123245	2.997900	3.611400	10.827000	23.122620	-0.000139	20.738563
458.123999	3.000900	3.612900	10.843000	23.117939	-0.000139	20.733397
459.125041	2.991200	3.613000	10.808000	23.116222	-0.000140	20.739738
460.126036	3.002700	3.613600	10.851000	23.123670	-0.000137	20.746728
461.128018	3.000700	3.613400	10.843000	23.124745	-0.000138	20.747331
462.124216	2.992400	3.613900	10.815000	23.122706	-0.000139	20.750029
463.129200	3.005100	3.615600	10.866000	23.125200	-0.000138	20.743993
464.125993	3.007500	3.616300	10.876000	23.134488	-0.000138	20.750456
465.125856	2.991400	3.615900	10.818000	23.152400	-0.000139	20.746594
466.126396	2.995800	3.617200	10.838000	23.161939	-0.000136	20.737186
467.127046	2.987700	3.615900	10.804000	23.153300	-0.000139	20.732796
468.127754	3.001000	3.615900	10.852000	23.169864	-0.000138	20.752240
469.127614	3.003000	3.617100	10.863000	23.175270	-0.000137	20.765244
470.127998	3.017400	3.617600	10.917000	23.191335	-0.000139	20.743884
471.128972	3.005800	3.617100	10.873000	23.157443	-0.000138	20.763976
472.131714	3.000200	3.617800	10.855000	23.179090	-0.000139	20.766227
473.130020	3.009400	3.617700	10.888000	23.171046	-0.000138	20.742993
474.130262	3.005000	3.618500	10.874000	23.197898	-0.000138	20.768479
475.129803	2.991500	3.618500	10.826000	23.184725	-0.000139	20.762391
476.129925	2.998800	3.618900	10.853000	23.197976	-0.000137	20.760971
477.130698	2.993500	3.618800	10.833000	23.218698	-0.000139	20.755658
478.129652	3.003000	3.619200	10.869000	23.200295	-0.000139	20.776572
479.129947	2.990000	3.620400	10.825000	23.221415	-0.000141	20.774029
480.128360	3.001300	3.621800	10.871000	23.214619	-0.000139	20.767692
481.129341	3.005700	3.621000	10.884000	23.206901	-0.000140	20.772760
482.135128	3.007300	3.619900	10.887000	23.241688	-0.000141	20.762102
483.130019	2.996600	3.622200	10.855000	23.222142	-0.000140	20.779025
484.129840	2.989400	3.621400	10.827000	23.224759	-0.000139	20.763629
485.131250	2.994000	3.622900	10.847000	23.233924	-0.000139	20.774236
486.129049	2.998100	3.622600	10.862000	23.236913	-0.000141	20.768223
487.129086	3.002000	3.624000	10.880000	23.256534	-0.000140	20.757066
488.132758	2.985900	3.621300	10.814000	23.270502	-0.000141	20.788134
489.131176	3.003800	3.623600	10.885000	23.246050	-0.000139	20.783070
490.133316	3.010700	3.623500	10.910000	23.278574	-0.000138	20.775361
491.131079	3.004300	3.624900	10.891000	23.270581	-0.000141	20.759764
492.131047	2.992000	3.622500	10.839000	23.271753	-0.000140	20.772792
493.133283	2.993900	3.624600	10.852000	23.279445	-0.000141	20.786665
494.133987	2.994300	3.625200	10.856000	23.263011	-0.000139	20.778256
495.134212	2.993600	3.625300	10.853000	23.270502	-0.000140	20.788609
496.133640	2.991300	3.625900	10.847000	23.271025	-0.000142	20.778227
497.133914	2.988500	3.624500	10.832000	23.280162	-0.000140	20.783116
498.135689	3.006200	3.625600	10.900000	23.293484	-0.000141	20.769915
499.137105	3.005000	3.625700	10.896000	23.307079	-0.000140	20.776428
500.133819	3.002300	3.626100	10.887000	23.277470	-0.000140	20.765246
501.134187	2.984800	3.627000	10.827000	23.316814	-0.000140	20.785236
502.133453	3.004500	3.627200	10.899000	23.301470	-0.000140	20.792144
503.133044	3.009200	3.627100	10.916000	23.301617	-0.000140	20.794662
504.134112	2.985600	3.628500	10.834000	23.350948	-0.000141	20.787205
505.133996	2.994100	3.629700	10.868000	23.320767	-0.000140	20.794414
506.133785	2.983600	3.628300	10.826000	23.319395	-0.000141	20.799202
507.133748	2.988800	3.629400	10.848000	23.323330	-0.000139	20.775645
508.133072	2.991000	3.628500	10.853000	23.329280	-0.000142	20.802471
509.133566	3.003000	3.629600	10.901000	23.318571	-0.000138	20.801696
510.135252	2.991000	3.629100	10.856000	23.326488	-0.000141	20.802044
511.135051	2.994600	3.629800	10.870000	23.331541	-0.000140	20.781030
512.138393	2.993600	3.631200	10.871000	23.349268	-0.000140	20.805435
513.136166	2.991200	3.631300	10.862000	23.339032	-0.000142	20.804659
514.135454	3.000400	3.632200	10.899000	23.373718	-0.000141	20.820931
515.135925	2.992000	3.631900	10.867000	23.356361	-0.000140	20.787888
516.136540	3.008700	3.633400	10.933000	23.367668	-0.000141	20.812497
517.136912	3.003900	3.631500	10.910000	23.376231	-0.000142	20.820130
518.136420	3.013400	3.632500	10.947000	23.367289	-0.000143	20.810220
519.137371	2.996800	3.633100	10.889000	23.391018	-0.000140	20.782795
520.139672	3.012600	3.633200	10.946000	23.384044	-0.000141	20.796667
521.137143	2.988700	3.633100	10.859000	23.391513	-0.000141	20.801308
522.137916	2.991900	3.634500	10.875000	23.383446	-0.000142	20.788481
523.137911	2.997800	3.636000	10.901000	23.388775	-0.000142	20.798564
524.138793	3.006700	3.635200	10.930000	23.385460	-0.000140	20.795716
525.140776	3.004200	3.635300	10.922000	23.392058	-0.000140	20.793794
526.141440	2.986400	3.635500	10.857000	23.389796	-0.000139	20.799114
527.137473	2.993600	3.636800	10.888000	23.408042	-0.000142	20.794642
528.140736	2.999600	3.636500	10.909000	23.401121	-0.000140	20.800033
529.139609	3.015500	3.637300	10.969000	23.411128	-0.000139	20.788252
530.139358	3.005300	3.636500	10.929000	23.415536	-0.000141	20.805472
531.141706	3.000900	3.636900	10.915000	23.417747	-0.000141	20.793938
532.140984	2.999300	3.637100	10.909000	23.408662	-0.000143	20.782935
533.141514	2.989300	3.637900	10.875000	23.430745	-0.000141	20.809337
534.140106	3.004000	3.638800	10.931000	23.429473	-0.000140	20.775345
535.141711	3.007700	3.637900	10.943000	23.438809	-0.000141	20.782332
536.144612	2.990900	3.638900	10.884000	23.456186	-0.000141	20.810182
537.141952	3.020600	3.638900	10.993000	23.454990	-0.000141	20.795232
538.142945	3.019200	3.639500	10.989000	23.435867	-0.000142	20.785073
539.146757	3.021700	3.639200	10.998000	23.454090	-0.000139	20.813770
540.142580	2.990300	3.639100	10.882000	23.450829	-0.000142	20.773043
541.143937	3.010500	3.641700	10.964000	23.437333	-0.000142	20.760464
542.145900	3.002900	3.642000	10.937000	23.445475	-0.000141	20.801342
543.144110	3.003300	3.640000	10.932000	23.448686	-0.000140	20.784172
544.144127	2.989500	3.641500	10.887000	23.442759	-0.000139	20.780127
545.144776	2.987100	3.641600	10.879000	23.469694	-0.000141	20.772512
546.143266	2.996900	3.643000	10.918000	23.443655	-0.000139	20.772016
547.146787	2.996200	3.642800	10.915000	23.450672	-0.000141	20.798965
548.144104	3.005000	3.643600	10.949000	23.485602	-0.000140	20.760956
549.142894	2.994900	3.643200	10.912000	23.475793	-0.000141	20.782894
550.143427	2.990300	3.643300	10.896000	23.475840	-0.000141	20.762552
551.143703	3.000600	3.644000	10.936000	23.493070	-0.000142	20.767968
552.145573	3.005300	3.645500	10.956000	23.487845	-0.000141	20.781223
553.147949	3.009800	3.643800	10.968000	23.500015	-0.000140	20.779198
554.143910	2.997100	3.644100	10.922000	23.473945	-0.000141	20.754962
555.145958	2.997700	3.644600	10.926000	23.503022	-0.000139	20.767039
556.144648	2.985300	3.644900	10.882000	23.492020	-0.000142	20.771184
557.145683	3.008700	3.646200	10.971000	23.519631	-0.000141	20.776575
558.147088	3.002000	3.646500	10.948000	23.500184	-0.000141	20.783634
559.145873	2.999200	3.646500	10.937000	23.512708	-0.000140	20.770584
560.145021	3.010700	3.645800	10.977000	23.525702	-0.000139	20.764643
561.144866	3.004000	3.647200	10.956000	23.502399	-0.000142	20.778742
562.146527	3.001300	3.647300	10.947000	23.498962	-0.000139	20.775297
563.148534	2.988200	3.646500	10.897000	23.522535	-0.000141	20.765261
564.147995	3.009700	3.648000	10.980000	23.515439	-0.000142	20.771899
565.148033	2.990000	3.647900	10.908000	23.535578	-0.000142	20.747041
566.148730	2.981900	3.647100	10.876000	23.534733	-0.000140	20.750935
567.149212	3.004800	3.648300	10.963000	23.520389	-0.000141	20.763584
568.150491	3.010100	3.648500	10.983000	23.512025	-0.000139	20.755674
569.154218	2.995200	3.648300	10.928000	23.527358	-0.000139	20.746388
570.150104	2.999500	3.648800	10.945000	23.539879	-0.000140	20.755146
571.152608	2.988100	3.649400	10.905000	23.551382	-0.000142	20.760039
572.152673	2.992400	3.650400	10.924000	23.549615	-0.000140	20.761587
573.153299	2.994600	3.650300	10.932000	23.527330	-0.000141	20.743989
574.153003	2.995900	3.651000	10.939000	23.540274	-0.000141	20.765499
575.153035	2.989700	3.651300	10.917000	23.499494	-0.000142	20.745483
576.152889	3.004200	3.650600	10.967000	23.535916	-0.000142	20.758286
577.153131	2.998500	3.652100	10.952000	23.559043	-0.000141	20.755391
578.152809	3.006400	3.652000	10.980000	23.551873	-0.000141	20.743461
579.155384	2.999700	3.652900	10.959000	23.563300	-0.000143	20.747330
580.153130	2.979600	3.651900	10.882000	23.535518	-0.000141	20.748878
581.152164	2.996500	3.652000	10.944000	23.567955	-0.000141	20.760531
582.154174	2.998800	3.653800	10.958000	23.551970	-0.000143	20.750671
583.154844	2.989000	3.652200	10.917000	23.542983	-0.000141	20.743084
584.158066	2.985000	3.653700	10.907000	23.565189	-0.000142	20.727411
585.154068	2.981400	3.653300	10.893000	23.564738	-0.000141	20.742607
586.156516	3.004700	3.654900	10.983000	23.577634	-0.000142	20.728507
587.153714	3.002400	3.655100	10.975000	23.575470	-0.000142	20.730605
588.153043	2.992700	3.654900	10.939000	23.581095	-0.000142	20.741461
589.157706	2.987500	3.655600	10.921000	23.595482	-0.000140	20.743555
590.154993	2.981800	3.655500	10.900000	23.586972	-0.000140	20.742610
591.154476	2.989800	3.655100	10.929000	23.590555	-0.000139	20.734822
592.154525	2.983700	3.655200	10.907000	23.596030	-0.000143	20.739837
593.153787	2.991100	3.656300	10.937000	23.611169	-0.000140	20.730831
594.158069	2.983800	3.655800	10.909000	23.588560	-0.000141	20.729028
595.155471	2.998500	3.657400	10.967000	23.611438	-0.000143	20.719720
596.154571	2.996800	3.657300	10.961000	23.621271	-0.000140	20.739061
597.158047	2.985700	3.656800	10.919000	23.594336	-0.000141	20.728180
598.154342	2.994000	3.658300	10.953000	23.603548	-0.000140	20.737416
599.155875	2.999500	3.658800	10.975000	23.608626	-0.000140	20.734919
600.160088	3.022500	3.659100	11.060000	23.600237	-0.000140	20.716552
601.157176	3.001800	3.660000	10.987000	23.614076	-0.000140	20.712881
602.156955	3.006600	3.658000	10.999000	23.616466	-0.000141	20.739934
603.157123	3.009500	3.660300	11.017000	23.611911	-0.000139	20.722091
604.159780	3.016400	3.660400	11.042000	23.613255	-0.000141	20.714429
605.160918	3.003600	3.660200	10.994000	23.624628	-0.000140	20.721090
606.157721	3.022800	3.660800	11.066000	23.617587	-0.000139	20.727782
607.160761	3.000700	3.662400	10.990000	23.633242	-0.000139	20.715500
608.158778	2.989700	3.660400	10.945000	23.631723	-0.000139	20.726306
609.158362	3.006600	3.661400	11.008000	23.617114	-0.000141	20.728256
610.160286	3.006500	3.660900	11.008000	23.629333	-0.000140	20.718693
611.157911	2.997600	3.661800	10.977000	23.630877	-0.000140	20.715974
612.157340	3.000500	3.662000	10.988000	23.637896	-0.000140	20.694086
613.158681	3.014100	3.661700	11.038000	23.655844	-0.000141	20.712554
614.159577	3.012400	3.663000	11.035000	23.662068	-0.000140	20.722587
615.161686	2.998700	3.663900	10.988000	23.647381	-0.000140	20.714975
616.160846	3.001200	3.664000	10.997000	23.648900	-0.000140	20.725982
617.159889	3.008800	3.663200	11.023000	23.650989	-0.000138	20.704841
618.160687	3.002300	3.664000	11.001000	23.659227	-0.000139	20.723533
619.160963	3.005200	3.665700	11.017000	23.647528	-0.000139	20.717020
620.164038	3.008900	3.665100	11.029000	23.659577	-0.000141	20.722462
621.160176	3.014800	3.666300	11.054000	23.654275	-0.000141	20.722361
622.160115	3.010100	3.665800	11.036000	23.675260	-0.000140	20.723960
623.159614	3.005500	3.665400	11.017000	23.652583	-0.000139	20.722562
624.160768	3.016900	3.666700	11.062000	23.678546	-0.000138	20.701174
625.163144	2.994300	3.665300	10.976000	23.663537	-0.000139	20.725483
626.162008	3.013600	3.667500	11.053000	23.681556	-0.000140	20.708933
627.160998	3.006100	3.666800	11.023000	23.677822	-0.000142	20.697603
628.161424	3.010200	3.667700	11.041000	23.672723	-0.000140	20.713829
629.160224	2.979300	3.667500	10.927000	23.682229	-0.000139	20.721463
630.160839	2.999400	3.668200	11.003000	23.700824	-0.000141	20.716872
631.161279	3.013000	3.668500	11.054000	23.688628	-0.000140	20.715076
632.161255	2.998000	3.669600	11.002000	23.684450	-0.000142	20.692868
633.161305	2.999200	3.669700	11.006000	23.686636	-0.000140	20.702646
634.163047	2.996700	3.668600	10.994000	23.693583	-0.000140	20.698231
635.163225	3.007200	3.669600	11.035000	23.688828	-0.000139	20.700103
636.165765	2.999600	3.669000	11.007000	23.704811	-0.000138	20.699531
637.160977	3.004900	3.669200	11.027000	23.698864	-0.000141	20.714432
638.161306	3.004500	3.670200	11.028000	23.717280	-0.000140	20.699230
639.164246	3.011100	3.669800	11.051000	23.700856	-0.000141	20.692720
640.162873	3.010500	3.670300	11.050000	23.706854	-0.000138	20.700156
641.165164	3.021500	3.670000	11.089000	23.709892	-0.000140	20.700357
642.167199	3.006400	3.670900	11.037000	23.714273	-0.000140	20.693370
643.164890	3.006100	3.672200	11.039000	23.708971	-0.000140	20.716505
644.164238	2.990300	3.671200	10.978000	23.724553	-0.000139	20.695141
645.164876	3.001100	3.671700	11.020000	23.704815	-0.000142	20.707596
646.164961	3.000800	3.671000	11.017000	23.712930	-0.000140	20.687755
647.167295	3.005700	3.672400	11.039000	23.707377	-0.000140	20.694990
648.164258	3.002000	3.673100	11.027000	23.726144	-0.000141	20.706220
649.164989	3.008000	3.674000	11.052000	23.722983	-0.000140	20.678868
650.164020	2.991400	3.673800	10.990000	23.709369	-0.000141	20.712162
651.164274	2.997400	3.673500	11.011000	23.705908	-0.000141	20.701579
652.165893	2.986600	3.673600	10.972000	23.720418	-0.000142	20.685780
653.165933	2.986900	3.674100	10.975000	23.727487	-0.000140	20.685755
654.165116	2.998800	3.674700	11.020000	23.708269	-0.000140	20.691618
655.164972	2.981500	3.674600	10.956000	23.747343	-0.000140	20.714200
656.165278	2.996000	3.675300	11.012000	23.723697	-0.000142	20.677212
657.168560	2.994100	3.674100	11.001000	23.726413	-0.000142	20.698429
658.165705	3.014400	3.675200	11.079000	23.713440	-0.000141	20.694431
659.166156	3.010100	3.676900	11.068000	23.709631	-0.000139	20.683974
660.171376	2.998800	3.676800	11.027000	23.735367	-0.000139	20.693181
661.167308	3.005300	3.676300	11.049000	23.725783	-0.000139	20.692581
662.170948	2.991300	3.677200	11.000000	23.722494	-0.000142	20.689758
663.172029	2.995700	3.677700	11.018000	23.709947	-0.000141	20.694249
664.168982	3.000200	3.676400	11.031000	23.726450	-0.000141	20.688508
665.169707	2.998600	3.677600	11.028000	23.722491	-0.000141	20.686435
666.169912	3.015400	3.678800	11.093000	23.742451	-0.000141	20.656184
667.169612	3.003400	3.678400	11.048000	23.722065	-0.000139	20.689802
668.171926	3.009500	3.679900	11.075000	23.733387	-0.000143	20.685980
669.170235	3.007300	3.679600	11.067000	23.728855	-0.000140	20.697084
670.171384	3.002800	3.679800	11.050000	23.754665	-0.000141	20.683131
671.172003	2.990900	3.679700	11.006000	23.755141	-0.000140	20.685506
672.171108	2.998100	3.680400	11.035000	23.758621	-0.000139	20.666707
673.173532	3.003000	3.679400	11.050000	23.749137	-0.000140	20.672847
674.173153	3.012700	3.679300	11.086000	23.757847	-0.000141	20.687745
675.175096	3.005800	3.680900	11.064000	23.768546	-0.000140	20.670020
676.173962	2.989100	3.679400	10.999000	23.769896	-0.000141	20.682755
677.173703	3.002100	3.680000	11.049000	23.759238	-0.000141	20.686294
678.176786	3.001600	3.681200	11.050000	23.771508	-0.000141	20.677259
679.173882	2.991000	3.681200	11.011000	23.775166	-0.000142	20.671917
680.173186	2.987700	3.681000	10.998000	23.777177	-0.000140	20.670613
681.174430	2.990600	3.681400	11.010000	23.763813	-0.000139	20.680924
682.180292	3.014100	3.682100	11.099000	23.768887	-0.000142	20.658981
683.177669	3.002500	3.681900	11.055000	23.767991	-0.000140	20.649547
684.175873	3.012700	3.682900	11.096000	23.792830	-0.000141	20.671135
685.175451	3.010000	3.683400	11.088000	23.777966	-0.000142	20.685631
686.175031	3.002400	3.683500	11.060000	23.783741	-0.000142	20.671031
687.178951	2.993300	3.682100	11.023000	23.791805	-0.000140	20.682911
688.176898	3.011100	3.683300	11.091000	23.784336	-0.000140	20.683009
689.177843	2.996400	3.684400	11.041000	23.783566	-0.000140	20.669433
690.180685	2.984200	3.684200	10.995000	23.777765	-0.000140	20.681636
691.177182	2.997500	3.685200	11.047000	23.782119	-0.000140	20.660869
692.178928	2.999000	3.683500	11.048000	23.794464	-0.000141	20.657125
693.183105	3.010300	3.686000	11.097000	23.771339	-0.000140	20.657646
694.178815	3.014800	3.686600	11.115000	23.766882	-0.000139	20.667878
695.178898	2.997500	3.684600	11.045000	23.779579	-0.000140	20.672074
696.178929	3.019600	3.686300	11.132000	23.767706	-0.000141	20.664436
697.177948	3.010700	3.687000	11.101000	23.783309	-0.000140	20.664907
698.180214	3.010400	3.686700	11.099000	23.794978	-0.000140	20.654795
699.179120	3.002500	3.686300	11.068000	23.797223	-0.000141	20.667479
700.179881	2.988800	3.687100	11.021000	23.794583	-0.000141	20.683800
701.180867	3.000700	3.686500	11.063000	23.810289	-0.000142	20.667777
702.180698	2.999000	3.688300	11.062000	23.815365	-0.000141	20.658642
703.182163	2.979900	3.687200	10.988000	23.821811	-0.000140	20.646136
704.182614	2.988100	3.687400	11.020000	23.783509	-0.000141	20.664160
705.182267	2.992500	3.689100	11.041000	23.801702	-0.000141	20.671970
706.183362	3.000800	3.687900	11.067000	23.811955	-0.000141	20.674664
707.183167	2.999200	3.688100	11.062000	23.820467	-0.000141	20.674190
708.183989	3.010000	3.688300	11.103000	23.808444	-0.000142	20.651701
709.182729	3.016800	3.689300	11.131000	23.815437	-0.000142	20.663456
710.183797	3.002300	3.688100	11.073000	23.792789	-0.000139	20.658764
711.187963	2.999300	3.689000	11.065000	23.804837	-0.000140	20.662310
712.183503	2.999400	3.690000	11.068000	23.797665	-0.000141	20.644686
713.186615	3.005400	3.689600	11.089000	23.804511	-0.000141	20.662932
714.187083	2.997500	3.688700	11.058000	23.827808	-0.000141	20.645986
715.185669	2.990200	3.690000	11.035000	23.799259	-0.000140	20.689911
716.185415	2.997600	3.690500	11.063000	23.806202	-0.000143	20.659411
717.185411	3.011200	3.692100	11.119000	23.821162	-0.000142	20.657342
718.184640	2.993200	3.691100	11.049000	23.811482	-0.000141	20.661387
719.188703	3.003600	3.691700	11.089000	23.813170	-0.000141	20.667347
720.187267	2.996200	3.691300	11.061000	23.804038	-0.000141	20.643015
721.186676	3.006100	3.691800	11.098000	23.789027	-0.000142	20.645508
722.187155	3.000400	3.692300	11.079000	23.817304	-0.000143	20.654421
723.185758	2.993200	3.692400	11.053000	23.818272	-0.000143	20.662030
724.190611	3.003100	3.692300	11.089000	23.825713	-0.000141	20.655266
725.186204	3.008700	3.693400	11.113000	23.832558	-0.000141	20.675883
726.187813	2.994400	3.693300	11.060000	23.820887	-0.000139	20.669869
727.188751	2.987200	3.693100	11.033000	23.814564	-0.000141	20.644086
728.187346	3.008500	3.695300	11.118000	23.816255	-0.000142	20.637720
729.187193	3.005600	3.694200	11.104000	23.822800	-0.000142	20.670839
730.190703	2.987100	3.694000	11.035000	23.830391	-0.000141	20.644309
731.188206	2.974700	3.694700	10.991000	23.832533	-0.000140	20.663528
732.186625	2.988600	3.695000	11.044000	23.848762	-0.000144	20.651824
733.188999	3.004200	3.695600	11.103000	23.830194	-0.000142	20.647905
734.188251	2.999100	3.695400	11.083000	23.855704	-0.000141	20.661632
735.191648	3.008200	3.695300	11.117000	23.834428	-0.000143	20.641244
736.190210	3.016200	3.695700	11.147000	23.832684	-0.000140	20.656566
737.191087	3.010900	3.696300	11.130000	23.843488	-0.000139	20.668823
738.192764	3.015200	3.696400	11.146000	23.855733	-0.000142	20.662608
739.190982	3.014700	3.695600	11.142000	23.862628	-0.000143	20.650081
740.192442	2.997700	3.697400	11.084000	23.852748	-0.000142	20.655348
741.192754	3.007200	3.697000	11.118000	23.846350	-0.000142	20.655096
742.189820	3.026100	3.696600	11.187000	23.861611	-0.000142	20.658545
743.193565	2.995600	3.697300	11.076000	23.857850	-0.000144	20.659515
744.191376	3.010200	3.698000	11.133000	23.865118	-0.000141	20.653526
745.194504	2.992500	3.697600	11.065000	23.867683	-0.000143	20.654201
746.193098	3.010700	3.697400	11.132000	23.859096	-0.000143	20.667404
747.191995	2.984600	3.697700	11.037000	23.867363	-0.000142	20.660520
748.193340	2.995800	3.699000	11.082000	23.851483	-0.000143	20.659295
749.194060	2.991100	3.697700	11.061000	23.857655	-0.000141	20.676392
750.197293	2.992200	3.698800	11.068000	23.872812	-0.000142	20.655552
751.194527	3.005400	3.698500	11.116000	23.866916	-0.000142	20.661968
752.193362	2.998000	3.698300	11.088000	23.842176	-0.000143	20.652807
753.193581	2.990600	3.700000	11.066000	23.859425	-0.000142	20.675795
754.193744	3.001200	3.699600	11.104000	23.882348	-0.000143	20.641878
755.195357	2.999400	3.699800	11.098000	23.874704	-0.000142	20.659345
756.195600	3.018800	3.700000	11.170000	23.877516	-0.000143	20.656475
757.194036	3.017800	3.700700	11.169000	23.878709	-0.000142	20.660517
758.197161	2.998300	3.699700	11.094000	23.879705	-0.000142	20.650134
759.195465	3.000600	3.701700	11.108000	23.888789	-0.000144	20.663513
760.195978	2.993500	3.701000	11.079000	23.874231	-0.000143	20.654129
761.200534	3.001600	3.700600	11.108000	23.874497	-0.000142	20.655819
762.195312	2.994000	3.701400	11.083000	23.883134	-0.000145	20.658789
763.196097	2.991800	3.700300	11.071000	23.874472	-0.000143	20.639196
764.195251	2.993500	3.702000	11.083000	23.880519	-0.000143	20.664229
765.195921	2.985500	3.701800	11.053000	23.885968	-0.000144	20.676806
766.197646	3.006600	3.702300	11.132000	23.880917	-0.000145	20.668421
767.197567	3.001000	3.702800	11.113000	23.883381	-0.000144	20.677057
768.198990	2.990500	3.703800	11.077000	23.891141	-0.000143	20.671087
769.200743	2.987500	3.703100	11.064000	23.895650	-0.000141	20.677981
770.199545	2.998800	3.703700	11.108000	23.885119	-0.000143	20.668842
771.199017	2.976300	3.702800	11.021000	23.876908	-0.000143	20.672937
772.199980	2.977700	3.703500	11.029000	23.879943	-0.000146	20.661754
773.199201	2.993800	3.703900	11.089000	23.913065	-0.000142	20.671260
774.199100	2.998500	3.704100	11.108000	23.892037	-0.000142	20.664398
775.199586	2.986100	3.704500	11.062000	23.889619	-0.000141	20.665293
776.199482	3.001900	3.703600	11.119000	23.915034	-0.000145	20.668493
777.202713	3.000000	3.704800	11.115000	23.900075	-0.000144	20.666295
778.199614	3.016000	3.704900	11.175000	23.930660	-0.000142	20.668515
779.200068	2.995700	3.704900	11.099000	23.891589	-0.000142	20.671536
780.199122	3.008000	3.704900	11.145000	23.911846	-0.000143	20.676677
781.197898	3.012300	3.706600	11.166000	23.900222	-0.000143	20.652216
782.201691	3.009000	3.705700	11.151000	23.921454	-0.000143	20.676354
783.201165	3.004400	3.707300	11.139000	23.917943	-0.000143	20.675204
784.201791	3.005200	3.706400	11.139000	23.909457	-0.000142	20.669065
785.201763	3.000700	3.707100	11.125000	23.917718	-0.000143	20.664072
786.201836	2.996200	3.706700	11.107000	23.934643	-0.000145	20.672984
787.201197	2.999700	3.706900	11.121000	23.914233	-0.000143	20.673854
788.206646	3.001000	3.707800	11.128000	23.918463	-0.000143	20.663871
789.202182	2.989000	3.708000	11.084000	23.921131	-0.000142	20.673659
790.203277	3.006100	3.709100	11.150000	23.910575	-0.000141	20.673505
791.207980	3.010000	3.708400	11.162000	23.922622	-0.000143	20.673257
792.201084	3.005900	3.708400	11.148000	23.942356	-0.000143	20.667441
793.205985	3.013800	3.709600	11.181000	23.930857	-0.000144	20.678197
794.205565	2.988300	3.708300	11.082000	23.914806	-0.000142	20.671109
795.203307	2.997900	3.708600	11.118000	23.936087	-0.000142	20.686287
796.205817	3.003600	3.709100	11.141000	23.939945	-0.000142	20.683517
797.207808	3.002800	3.708500	11.137000	23.918689	-0.000143	20.706775
798.206964	2.992800	3.708000	11.099000	23.944551	-0.000141	20.677704
799.205215	2.984500	3.710300	11.074000	23.927729	-0.000142	20.685967
800.209142	3.002200	3.709900	11.138000	23.947291	-0.000141	20.676184
801.206444	2.996500	3.710000	11.118000	23.956397	-0.000141	20.687688
802.206764	3.001700	3.710800	11.139000	23.954512	-0.000142	20.682478
803.206409	3.002800	3.710900	11.143000	23.944159	-0.000141	20.694383
804.205850	2.992300	3.709800	11.101000	23.939556	-0.000144	20.682179
805.205852	2.993400	3.710900	11.108000	23.947717	-0.000141	20.682776
806.209157	2.988800	3.710300	11.090000	23.945456	-0.000140	20.679560
807.206259	2.996200	3.712600	11.124000	23.949564	-0.000141	20.671351
808.208705	3.009500	3.712400	11.173000	23.936250	-0.000141	20.675544
809.208337	2.997900	3.712000	11.129000	23.946702	-0.000143	20.684604
810.208260	2.985500	3.711900	11.083000	23.927391	-0.000143	20.672350
811.212059	2.996800	3.712200	11.125000	23.959920	-0.000142	20.668933
812.209718	3.011100	3.713000	11.181000	23.926871	-0.000143	20.691271
813.208268	2.996900	3.713400	11.129000	23.953500	-0.000143	20.686205
814.212025	3.019300	3.713800	11.213000	23.942378	-0.000143	20.691648
815.211074	3.003300	3.714400	11.157000	23.963182	-0.000143	20.683112
816.212289	2.992300	3.712300	11.109000	23.941313	-0.000141	20.691529
817.219169	3.024800	3.713200	11.233000	23.950194	-0.000142	20.700909
818.215210	2.990800	3.713400	11.107000	23.942234	-0.000140	20.683916
819.210923	2.990000	3.714200	11.106000	23.950817	-0.000144	20.711492
820.218525	2.995700	3.714200	11.127000	23.976725	-0.000141	20.701436
821.211511	3.009600	3.713800	11.178000	23.982521	-0.000141	20.693498
822.213200	3.003400	3.714400	11.157000	23.971700	-0.000144	20.688335
823.217513	2.982500	3.715600	11.082000	23.982524	-0.000144	20.690656
824.215039	2.998800	3.715500	11.143000	23.978942	-0.000143	20.693702
825.216474	2.998900	3.714900	11.141000	23.978570	-0.000143	20.718460
826.216675	3.005300	3.715300	11.166000	23.962071	-0.000142	20.701440
827.217378	3.005600	3.715800	11.169000	23.957719	-0.000144	20.702765
828.219644	3.009600	3.716200	11.185000	23.982302	-0.000143	20.697546
829.217313	3.005400	3.716800	11.171000	23.973594	-0.000142	20.688338
830.219144	3.007900	3.716600	11.180000	23.984644	-0.000145	20.698946
831.214894	3.001600	3.717000	11.158000	23.987929	-0.000142	20.697973
832.217830	2.993900	3.717700	11.131000	23.978626	-0.000142	20.692436
833.218808	3.001100	3.717500	11.158000	23.968869	-0.000143	20.715844
834.218022	2.996300	3.718100	11.142000	23.967028	-0.000144	20.687443
835.217349	2.985500	3.716100	11.095000	23.999649	-0.000142	20.700717
836.220870	2.979900	3.717100	11.077000	24.002762	-0.000144	20.717116
837.219801	3.001200	3.718900	11.162000	23.992360	-0.000145	20.716642
838.221862	2.997900	3.719300	11.151000	24.011147	-0.000146	20.708455
839.221267	2.993500	3.717300	11.129000	23.998754	-0.000144	20.708355
840.218969	3.005600	3.719100	11.179000	24.004678	-0.000143	20.717615
841.222186	3.016000	3.718900	11.217000	23.996468	-0.000146	20.711753
842.219835	2.996700	3.719200	11.146000	23.991661	-0.000145	20.703139
843.219834	2.993300	3.720600	11.138000	24.006294	-0.000145	20.697897
844.222233	3.006400	3.719600	11.183000	24.006716	-0.000145	20.713021
845.219873	3.010300	3.719500	11.198000	23.993678	-0.000144	20.709429
846.219194	3.002400	3.719800	11.169000	24.027917	-0.000143	20.702039
847.221594	3.008200	3.720900	11.194000	24.015947	-0.000144	20.700940
848.221029	3.016000	3.720800	11.223000	24.026474	-0.000144	20.703911
849.221190	3.002100	3.720600	11.170000	24.023462	-0.000143	20.726496
850.222291	3.006400	3.720800	11.187000	24.005943	-0.000144	20.689484
851.221533	2.997400	3.721300	11.155000	24.005198	-0.000143	20.710076
852.220527	3.010000	3.722100	11.204000	24.016620	-0.000144	20.708728
853.225975	3.004100	3.721600	11.180000	24.004900	-0.000144	20.701242
854.222595	2.996500	3.722400	11.155000	24.011638	-0.000142	20.706103
855.222114	2.985300	3.722500	11.114000	24.009897	-0.000143	20.713841
856.223530	2.996800	3.721300	11.153000	24.007537	-0.000143	20.703412
857.221636	2.995400	3.722100	11.150000	24.023214	-0.000144	20.718661
858.224201	2.997300	3.721100	11.154000	24.009002	-0.000143	20.704881
859.221862	2.986100	3.723300	11.119000	24.025127	-0.000143	20.733857
860.222205	3.010100	3.724300	11.211000	24.011989	-0.000144	20.724948
861.225713	3.004400	3.724000	11.189000	24.018533	-0.000144	20.719182
862.223757	2.989400	3.723300	11.131000	24.045035	-0.000144	20.705930
863.224735	3.003500	3.723000	11.183000	24.035876	-0.000146	20.728041
864.226437	2.995200	3.724700	11.157000	24.027936	-0.000144	20.727664
865.226386	3.007300	3.725000	11.203000	24.044860	-0.000144	20.707651
866.225793	3.001600	3.723500	11.177000	24.034035	-0.000146	20.731411
867.228024	3.006000	3.725000	11.198000	24.034010	-0.000143	20.707202
868.227766	3.025900	3.725900	11.275000	24.005965	-0.000143	20.734080
869.226791	3.015900	3.724900	11.235000	24.021195	-0.000143	20.719955
870.230267	3.003100	3.725100	11.188000	24.036049	-0.000144	20.727740
871.228567	3.011500	3.725400	11.220000	24.030751	-0.000147	20.736652
872.229300	3.005100	3.725800	11.197000	24.029455	-0.000145	20.721600
873.230659	2.994000	3.725400	11.154000	24.027040	-0.000144	20.719653
874.228548	2.992300	3.727000	11.153000	24.048488	-0.000144	20.726939
875.230052	2.997300	3.727100	11.172000	24.043538	-0.000144	20.746631
876.235870	3.000600	3.726700	11.183000	24.030945	-0.000145	20.740166
877.233706	3.009000	3.727200	11.216000	24.037840	-0.000147	20.742813
878.230214	2.984300	3.726600	11.122000	24.051175	-0.000145	20.717304
879.234418	2.994100	3.727500	11.161000	24.049309	-0.000145	20.733452
880.232087	3.011500	3.728700	11.229000	24.064134	-0.000144	20.735518
881.232925	2.995200	3.727100	11.164000	24.052042	-0.000146	20.728132
882.235106	2.999600	3.728000	11.183000	24.068643	-0.000145	20.732453
883.234602	3.000500	3.728300	11.187000	24.028055	-0.000146	20.731103
884.233482	3.009800	3.728000	11.221000	24.042035	-0.000145	20.739908
885.234262	3.002000	3.728900	11.195000	24.056867	-0.000145	20.738187
886.233988	3.005000	3.729300	11.208000	24.047837	-0.000142	20.756159
887.235298	3.000200	3.729700	11.191000	24.046588	-0.000145	20.756802
888.237314	3.001800	3.729000	11.194000	24.065900	-0.000142	20.732547
889.235366	2.995000	3.730400	11.173000	24.060248	-0.000146	20.734940
890.236035	3.000400	3.729600	11.191000	24.057612	-0.000146	20.728028
891.239123	2.982400	3.729500	11.123000	24.060922	-0.000145	20.736089
892.232857	2.996500	3.729700	11.176000	24.062637	-0.000143	20.725956
893.233692	2.989300	3.730600	11.152000	24.076248	-0.000146	20.765212
894.237047	2.992100	3.730800	11.163000	24.062443	-0.000143	20.753738
895.235751	3.020900	3.732400	11.276000	24.078318	-0.000143	20.750691
896.234634	2.998000	3.732100	11.189000	24.080212	-0.000141	20.728408
897.236196	2.995500	3.731600	11.179000	24.096011	-0.000143	20.747573
898.233169	3.004800	3.732400	11.215000	24.072322	-0.000145	20.752739
899.235847	2.993200	3.732500	11.173000	24.072923	-0.000143	20.732478
900.237276	2.986600	3.732600	11.148000	24.086439	-0.000143	20.732284
901.237228	2.992700	3.732200	11.169000	24.088305	-0.000142	20.742690
902.238356	2.999200	3.733900	11.199000	24.107420	-0.000142	20.733411
903.238256	3.008200	3.733900	11.233000	24.091245	-0.000144	20.765080
904.236056	2.995300	3.732300	11.180000	24.098368	-0.000144	20.741877
905.238242	2.991500	3.732300	11.166000	24.104690	-0.000144	20.743476
906.240918	2.995000	3.733000	11.182000	24.117458	-0.000142	20.742531
907.237939	2.988100	3.734100	11.158000	24.116018	-0.000143	20.752940
908.237774	3.004500	3.734600	11.221000	24.105222	-0.000143	20.770089
909.240252	2.991200	3.733400	11.168000	24.109030	-0.000143	20.781494
910.239447	2.988300	3.734000	11.159000	24.099505	-0.000143	20.770520
911.244746	2.990600	3.734400	11.168000	24.112524	-0.000144	20.742324
912.238777	2.990900	3.736500	11.176000	24.101926	-0.000142	20.794758
913.239307	3.000800	3.736200	11.213000	24.131269	-0.000142	20.767289
914.241058	2.996500	3.735700	11.195000	24.109847	-0.000143	20.778521
915.240138	2.999300	3.737300	11.210000	24.129137	-0.000142	20.780324
916.241580	3.008700	3.735500	11.239000	24.103783	-0.000144	20.749205
917.242025	2.993000	3.735900	11.183000	24.111752	-0.000143	20.788966
918.242493	3.002000	3.736700	11.218000	24.109191	-0.000141	20.764586
919.241560	2.998400	3.736500	11.204000	24.112077	-0.000144	20.768904
920.244623	3.005500	3.737500	11.233000	24.152891	-0.000146	20.778070
921.242123	2.979000	3.736600	11.133000	24.124307	-0.000144	20.764574
922.241584	2.999900	3.737300	11.212000	24.120572	-0.000143	20.767466
923.243682	2.987000	3.737000	11.163000	24.134708	-0.000146	20.752720
924.242364	2.981500	3.737600	11.144000	24.137948	-0.000145	20.754548
925.243037	2.984200	3.737400	11.154000	24.118788	-0.000142	20.783220
926.246201	2.997500	3.738100	11.206000	24.134495	-0.000143	20.795181
927.241622	2.999000	3.738700	11.213000	24.131462	-0.000142	20.785501
928.243135	2.977100	3.737900	11.129000	24.134821	-0.000142	20.775119
929.245895	2.995200	3.739500	11.201000	24.143732	-0.000144	20.771254
930.244039	3.006800	3.739500	11.244000	24.153512	-0.000145	20.779167
931.243231	3.004500	3.739500	11.236000	24.159163	-0.000143	20.782939
932.247763	2.987000	3.739000	11.169000	24.132517	-0.000144	20.799836
933.243122	2.993600	3.739400	11.195000	24.162827	-0.000143	20.800838
934.243394	2.994800	3.739800	11.200000	24.162777	-0.000142	20.795098
935.245906	2.995000	3.739900	11.201000	24.143548	-0.000143	20.779605
936.246564	2.992600	3.741200	11.197000	24.140264	-0.000144	20.806656
937.245947	2.991700	3.739900	11.189000	24.156738	-0.000144	20.798050
938.250163	3.014000	3.740100	11.274000	24.182617	-0.000143	20.800298
939.244456	3.001600	3.741600	11.232000	24.156967	-0.000143	20.793538
940.244968	3.004400	3.742400	11.244000	24.179060	-0.000143	20.786300
941.248424	3.001400	3.740700	11.229000	24.168262	-0.000142	20.795858
942.244871	2.992300	3.741400	11.196000	24.159011	-0.000145	20.808865
943.246791	3.012000	3.741900	11.271000	24.168262	-0.000141	20.794910
944.245394	2.985800	3.742100	11.174000	24.148908	-0.000144	20.804421
945.244753	2.995700	3.742500	11.212000	24.166600	-0.000143	20.794191
946.249471	3.002500	3.743400	11.240000	24.169064	-0.000143	20.790498
947.246547	3.000100	3.743200	11.231000	24.179042	-0.000142	20.811886
948.246201	2.992800	3.742000	11.200000	24.179411	-0.000140	20.820790
949.250413	2.998900	3.743500	11.227000	24.199616	-0.000141	20.815927
950.246313	2.997100	3.744300	11.223000	24.186928	-0.000143	20.827382
951.248766	2.990900	3.744200	11.199000	24.184067	-0.000143	20.819296
952.251675	3.009800	3.744400	11.270000	24.189614	-0.000141	20.794989
953.248479	3.010200	3.743900	11.270000	24.169039	-0.000141	20.813707
954.248956	3.002300	3.744800	11.243000	24.177771	-0.000142	20.814878
955.255057	3.004300	3.745000	11.251000	24.187995	-0.000141	20.819918
956.248891	3.003000	3.744700	11.245000	24.178369	-0.000142	20.807417
957.250708	3.015900	3.746200	11.299000	24.190556	-0.000141	20.816796
958.250553	3.009000	3.746100	11.273000	24.183390	-0.000142	20.808186
959.247491	3.018500	3.746200	11.309000	24.191426	-0.000142	20.791117
960.249988	3.004000	3.745900	11.253000	24.179880	-0.000142	20.821735
961.252768	3.001600	3.747900	11.250000	24.195484	-0.000141	20.812730
962.251053	2.991800	3.746500	11.210000	24.182896	-0.000142	20.815277
963.253687	2.988200	3.745400	11.193000	24.197296	-0.000143	20.830669
964.251585	2.994100	3.746100	11.217000	24.199434	-0.000144	20.822382
965.254169	2.984500	3.747800	11.186000	24.177467	-0.000142	20.804616
966.251912	3.013800	3.748300	11.297000	24.223343	-0.000143	20.813646
967.252938	3.012500	3.748600	11.293000	24.215331	-0.000142	20.792335
968.254219	2.982900	3.746300	11.175000	24.207567	-0.000142	20.816789
969.253652	3.006800	3.747900	11.270000	24.196344	-0.000144	20.833033
970.253047	3.001600	3.748700	11.253000	24.208635	-0.000142	20.819757
971.255585	2.991100	3.749100	11.215000	24.214161	-0.000142	20.827670
972.255852	3.006700	3.749300	11.274000	24.189275	-0.000145	20.832580
973.253361	2.997900	3.750100	11.243000	24.229657	-0.000142	20.813341
974.255026	2.988400	3.749300	11.205000	24.222190	-0.000145	20.814387
975.255409	3.013500	3.749900	11.301000	24.228182	-0.000144	20.814707
976.255098	2.995600	3.750500	11.235000	24.234026	-0.000144	20.804448
977.259740	2.992300	3.750000	11.222000	24.222609	-0.000143	20.820971
978.255455	2.993500	3.750600	11.228000	24.210265	-0.000145	20.819021
979.261771	3.003600	3.750200	11.264000	24.231734	-0.000144	20.820641
980.255731	2.997800	3.751800	11.249000	24.231932	-0.000144	20.813253
981.257119	2.981200	3.751600	11.185000	24.235910	-0.000143	20.803493
982.259946	3.000100	3.752500	11.258000	24.246031	-0.000144	20.810326
983.257102	2.977700	3.751900	11.172000	24.242919	-0.000143	20.816213
984.258983	3.006800	3.752100	11.283000	24.234138	-0.000143	20.815466
985.259102	3.001900	3.752300	11.264000	24.223316	-0.000144	20.820732
986.258172	3.019100	3.752900	11.331000	24.236645	-0.000145	20.790954
987.262882	3.015400	3.751300	11.312000	24.233286	-0.000142	20.807025
988.257808	3.014100	3.753300	11.313000	24.244058	-0.000142	20.790804
989.258795	3.003500	3.752800	11.273000	24.240775	-0.000142	20.800786
990.260328	2.990300	3.752200	11.221000	24.251221	-0.000145	20.803204
991.259382	3.011300	3.753200	11.303000	24.247912	-0.000143	20.812212
992.260212	3.009500	3.754400	11.299000	24.268113	-0.000144	20.785534
993.259381	3.019300	3.754200	11.337000	24.260722	-0.000145	20.792819
994.258915	3.008200	3.755000	11.296000	24.248879	-0.000144	20.789475
995.259783	3.001600	3.755200	11.272000	24.236388	-0.000145	20.796860
996.258217	3.027700	3.756200	11.374000	24.260869	-0.000145	20.790122
997.259909	2.994500	3.755800	11.247000	24.253825	-0.000144	20.781160
998.261967	3.011100	3.756000	11.311000	24.269349	-0.000144	20.789145
999.258902	3.019600	3.756300	11.343000	24.251884	-0.000143	20.782058
1000.259893	2.996200	3.756100	11.255000	24.254821	-0.000143	20.794012
1001.258581	3.000500	3.755600	11.269000	24.238498	-0.000142	20.788071
1002.260051	3.008900	3.757100	11.305000	24.256336	-0.000143	20.798377
1003.260389	3.001300	3.758100	11.280000	24.262900	-0.000143	20.773193
1004.261071	3.003500	3.756700	11.284000	24.273027	-0.000141	20.793309
1005.260331	2.981000	3.755400	11.195000	24.265167	-0.000141	20.794907
1006.260633	3.010800	3.758400	11.317000	24.276830	-0.000142	20.794279
1007.260520	3.010500	3.757300	11.312000	24.264565	-0.000142	20.782450
1008.258848	3.015300	3.758500	11.334000	24.275760	-0.000143	20.787515
1009.262109	3.001500	3.757600	11.279000	24.285561	-0.000142	20.763681
1010.259507	2.987700	3.758700	11.230000	24.282872	-0.000143	20.780424
1011.259972	2.992300	3.759500	11.250000	24.281654	-0.000144	20.802437
1012.263938	2.999400	3.759800	11.278000	24.280039	-0.000144	20.785169
1013.260117	3.016400	3.760200	11.343000	24.278542	-0.000144	20.778452
1014.260075	2.987200	3.759700	11.232000	24.291230	-0.000144	20.805404
1015.262520	2.984500	3.760400	11.224000	24.294514	-0.000142	20.777878
1016.260972	2.977100	3.758600	11.190000	24.275781	-0.000142	20.776631
1017.258797	2.985300	3.760500	11.227000	24.287298	-0.000142	20.780123
1018.264814	3.014100	3.761000	11.336000	24.289361	-0.000143	20.788356
1019.261455	3.000900	3.759500	11.283000	24.281948	-0.000143	20.768592
1020.260750	2.981000	3.760300	11.210000	24.263313	-0.000143	20.796367
1021.262350	2.996400	3.761800	11.272000	24.291123	-0.000142	20.755036
1022.261596	2.988900	3.761200	11.242000	24.275872	-0.000142	20.769609
1023.260518	3.001600	3.762300	11.294000	24.294729	-0.000142	20.782836
1024.263422	2.985200	3.762400	11.233000	24.297616	-0.000142	20.795214
1025.261650	2.981100	3.762400	11.217000	24.278107	-0.000141	20.764739
1026.262212	2.988000	3.761800	11.241000	24.280599	-0.000142	20.772454
1027.263045	3.010400	3.762100	11.326000	24.283385	-0.000144	20.779991
1028.261911	2.995500	3.763300	11.273000	24.266887	-0.000144	20.766761
1029.261520	2.993600	3.764000	11.269000	24.294923	-0.000142	20.763115
1030.262556	3.007100	3.763500	11.318000	24.275418	-0.000143	20.772473
1031.262070	3.001800	3.763800	11.299000	24.280721	-0.000143	20.770206
1032.259873	2.997100	3.764400	11.283000	24.287936	-0.000142	20.771280
1033.263284	3.001300	3.764100	11.297000	24.292212	-0.000142	20.764189
1034.262935	3.005800	3.763800	11.313000	24.270393	-0.000146	20.751311
1035.264575	2.998600	3.765300	11.291000	24.277709	-0.000143	20.759598
1036.265550	2.999800	3.764500	11.294000	24.289752	-0.000144	20.756979
1037.264497	2.998800	3.765600	11.293000	24.283782	-0.000143	20.785131
1038.266000	3.006700	3.765800	11.323000	24.291843	-0.000142	20.757655
1039.268086	3.014800	3.765500	11.353000	24.294332	-0.000143	20.776273
1040.266112	3.015300	3.766400	11.358000	24.277093	-0.000146	20.771308
1041.267482	3.022700	3.766700	11.387000	24.287814	-0.000144	20.741285
1042.269772	2.991800	3.765200	11.265000	24.299287	-0.000144	20.770338
1043.269249	3.003100	3.768000	11.316000	24.294708	-0.000146	20.745829
1044.267926	3.001800	3.768900	11.315000	24.308641	-0.000145	20.763599
1045.270048	3.010600	3.768000	11.344000	24.302796	-0.000144	20.759633
1046.268176	3.013900	3.768300	11.359000	24.287642	-0.000145	20.762450
1047.269412	3.014400	3.768900	11.361000	24.312472	-0.000144	20.759382
1048.268766	3.007400	3.768900	11.336000	24.317825	-0.000143	20.754320
1049.269104	2.990300	3.768100	11.269000	24.314091	-0.000144	20.753419
1050.268522	2.984100	3.768300	11.246000	24.315265	-0.000146	20.778305
1051.268584	3.000900	3.769600	11.313000	24.345215	-0.000144	20.756192
1052.270362	3.007800	3.769500	11.339000	24.341258	-0.000145	20.757912
1053.272194	2.998900	3.768900	11.303000	24.321531	-0.000144	20.744287
1054.270252	3.015400	3.770000	11.368000	24.332653	-0.000145	20.744538
1055.270633	3.006100	3.769400	11.332000	24.350611	-0.000146	20.763976
1056.280407	2.983300	3.769800	11.247000	24.327304	-0.000143	20.751026
1057.270144	2.998800	3.770100	11.306000	24.339596	-0.000144	20.755771
1058.273522	3.014700	3.770700	11.368000	24.337953	-0.000145	20.774986
1059.272450	3.000400	3.770900	11.315000	24.325588	-0.000146	20.746460
1060.270767	2.998700	3.770600	11.308000	24.339571	-0.000144	20.750056
1061.274436	2.991700	3.772500	11.287000	24.335940	-0.000145	20.769648
1062.269862	2.991900	3.771400	11.284000	24.351162	-0.000145	20.732285
1063.268535	3.009800	3.772700	11.356000	24.321460	-0.000146	20.746586
1064.276000	2.996900	3.772000	11.305000	24.329620	-0.000146	20.739599
1065.271772	2.998800	3.772500	11.314000	24.333427	-0.000147	20.737727
1066.271827	2.999100	3.771300	11.311000	24.339421	-0.000145	20.762234
1067.271591	3.015300	3.773200	11.378000	24.335468	-0.000145	20.773441
1068.275795	2.997300	3.772700	11.309000	24.342185	-0.000145	20.737979
1069.272506	3.003600	3.773600	11.335000	24.326136	-0.000145	20.735155
1070.271449	2.994400	3.774300	11.302000	24.322154	-0.000145	20.738748
1071.275143	2.994200	3.772800	11.297000	24.341459	-0.000145	20.715912
1072.272046	2.998100	3.774800	11.318000	24.379096	-0.000145	20.726168
1073.273106	2.980300	3.774100	11.249000	24.343124	-0.000144	20.746507
1074.275302	2.977300	3.774500	11.239000	24.330434	-0.000145	20.744683
1075.272594	2.979600	3.775600	11.250000	24.348273	-0.000141	20.736025
1076.273037	2.994100	3.775500	11.305000	24.337327	-0.000143	20.753494
1077.276114	2.986600	3.774800	11.274000	24.325682	-0.000144	20.738019
1078.273731	3.011400	3.776200	11.373000	24.348195	-0.000145	20.743059
1079.273527	3.016100	3.776000	11.390000	24.354934	-0.000144	20.733224
1080.277833	3.016200	3.775800	11.390000	24.333589	-0.000147	20.749744
1081.273796	3.002000	3.777100	11.340000	24.334634	-0.000145	20.743681
1082.271475	3.012300	3.776900	11.378000	24.343712	-0.000145	20.723862
1083.277454	3.010400	3.778100	11.375000	24.352464	-0.000145	20.736910
1084.273644	3.004000	3.777600	11.349000	24.346967	-0.000144	20.726180
1085.273153	3.024700	3.779000	11.431000	24.347265	-0.000144	20.731694
1086.279034	2.994000	3.778200	11.312000	24.340150	-0.000145	20.742575
1087.273951	3.010400	3.778500	11.376000	24.356940	-0.000144	20.728598
1088.275399	2.990900	3.777600	11.299000	24.355350	-0.000143	20.751660
1089.278326	3.007300	3.778300	11.364000	24.345793	-0.000143	20.727373
1090.276419	3.017300	3.779900	11.405000	24.363181	-0.000143	20.723005
1091.276961	3.009700	3.779900	11.377000	24.349800	-0.000145	20.714796
1092.280763	3.008200	3.780000	11.372000	24.359945	-0.000146	20.715964
1093.277622	3.025300	3.781000	11.439000	24.369595	-0.000144	20.718533
1094.277011	3.009200	3.780600	11.377000	24.387906	-0.000147	20.723152
1095.278854	2.990800	3.781800	11.311000	24.382679	-0.000143	20.722176
1096.276473	2.985600	3.780600	11.288000	24.392210	-0.000143	20.715616
1097.277130	3.009200	3.781600	11.380000	24.389571	-0.000143	20.731462
1098.280099	3.000100	3.781000	11.344000	24.368302	-0.000144	20.723400
1099.279158	3.002300	3.781100	11.353000	24.380190	-0.000144	20.719205
1100.278229	3.001600	3.781200	11.350000	24.387803	-0.000143	20.727790
1101.277990	2.990400	3.781400	11.309000	24.379370	-0.000144	20.716960
1102.278942	2.989300	3.782500	11.307000	24.375264	-0.000146	20.713788
1103.281269	2.993600	3.782000	11.323000	24.387455	-0.000143	20.715587
1104.277040	3.004100	3.781700	11.361000	24.398448	-0.000144	20.727090
1105.278217	2.997100	3.783100	11.339000	24.399988	-0.000144	20.722945
1106.280071	3.004200	3.783000	11.366000	24.410859	-0.000143	20.719626
1107.278000	2.987400	3.783000	11.302000	24.420615	-0.000143	20.709972
1108.280688	2.995800	3.783400	11.335000	24.425088	-0.000145	20.711140
1109.279138	2.983900	3.783500	11.291000	24.405535	-0.000145	20.715232
1110.279344	2.990700	3.785500	11.322000	24.388798	-0.000145	20.713141
1111.280704	3.000500	3.784700	11.357000	24.401484	-0.000143	20.698366
1112.280019	3.000800	3.783700	11.355000	24.401957	-0.000143	20.708324
1113.279703	3.001100	3.783900	11.356000	24.410464	-0.000145	20.723972
1114.279978	2.995400	3.784200	11.336000	24.418524	-0.000144	20.716410
1115.279697	2.990300	3.785100	11.319000	24.421163	-0.000143	20.712419
1116.282411	2.994000	3.784700	11.332000	24.436165	-0.000144	20.702813
1117.280835	3.007500	3.786000	11.387000	24.449126	-0.000144	20.720559
1118.282133	3.004100	3.787000	11.377000	24.442710	-0.000146	20.726450
1119.282283	2.993400	3.786900	11.336000	24.429132	-0.000143	20.708085
1120.282784	2.988800	3.787300	11.320000	24.428162	-0.000145	20.716121
1121.284174	2.991000	3.786900	11.327000	24.437345	-0.000145	20.703048
1122.285495	2.994700	3.787300	11.342000	24.426948	-0.000144	20.704945
1123.283697	3.002400	3.787700	11.373000	24.416728	-0.000145	20.689950
1124.283894	2.995600	3.787600	11.347000	24.431480	-0.000144	20.697638
1125.285029	2.995100	3.788600	11.348000	24.441630	-0.000145	20.720625
1126.284693	2.986700	3.787900	11.314000	24.426313	-0.000144	20.695299
1127.289335	3.008100	3.787900	11.396000	24.442035	-0.000146	20.706805
1128.286159	2.996600	3.789600	11.357000	24.434745	-0.000144	20.698543
1129.286039	3.001000	3.789900	11.374000	24.424701	-0.000143	20.717865
1130.286963	3.001600	3.788400	11.371000	24.441619	-0.000147	20.695007
1131.286389	2.986000	3.789400	11.315000	24.440551	-0.000143	20.716697
1132.287990	3.001900	3.790600	11.379000	24.442846	-0.000144	20.702877
1133.289558	2.997700	3.790000	11.362000	24.452123	-0.000144	20.709814
1134.285881	3.004700	3.789800	11.387000	24.446780	-0.000145	20.697341
1135.285510	3.010000	3.791000	11.411000	24.445660	-0.000144	20.696691
1136.288649	2.995400	3.790700	11.355000	24.436486	-0.000144	20.704083
1137.286074	2.997000	3.790700	11.362000	24.446937	-0.000144	20.682798
1138.286260	3.002900	3.790600	11.383000	24.448230	-0.000144	20.713495
1139.285818	3.002000	3.791200	11.381000	24.435472	-0.000144	20.689789
1140.287103	3.005400	3.791300	11.395000	24.451194	-0.000146	20.706511
1141.286455	2.972800	3.791600	11.272000	24.451817	-0.000145	20.691488
1142.289201	3.013800	3.794300	11.436000	24.439507	-0.000146	20.706640
1143.287462	3.004300	3.792500	11.395000	24.448713	-0.000144	20.704021
1144.287647	2.996200	3.792300	11.363000	24.441874	-0.000146	20.712334
1145.292259	2.988900	3.792500	11.336000	24.463814	-0.000145	20.688825
1146.289918	2.999700	3.794000	11.382000	24.447670	-0.000145	20.699656
1147.290782	2.999800	3.793800	11.381000	24.466478	-0.000145	20.695766
1148.292502	2.996200	3.793400	11.367000	24.455905	-0.000145	20.674251
1149.288768	3.010400	3.794300	11.423000	24.475279	-0.000145	20.698906
1150.289030	3.000700	3.795300	11.389000	24.466281	-0.000145	20.678971
1151.292562	2.995300	3.794400	11.366000	24.447026	-0.000145	20.712761
1152.288836	3.011900	3.797100	11.437000	24.462500	-0.000145	20.706948
1153.290915	3.012700	3.795700	11.436000	24.458494	-0.000145	20.685384
1154.295185	2.991600	3.794800	11.353000	24.467599	-0.000145	20.673180
1155.291926	2.987700	3.795600	11.340000	24.469661	-0.000146	20.695166
1156.291313	2.999600	3.795900	11.387000	24.472919	-0.000146	20.684209
1157.294275	2.980200	3.796100	11.314000	24.466131	-0.000145	20.678820
1158.291825	3.015000	3.796000	11.445000	24.465758	-0.000145	20.675127
1159.293830	3.006500	3.797000	11.417000	24.479292	-0.000147	20.674480
1160.293903	3.001200	3.797600	11.398000	24.483893	-0.000145	20.692374
1161.298690	2.991300	3.798000	11.362000	24.460062	-0.000145	20.681741
1162.294991	2.991800	3.798500	11.365000	24.475210	-0.000144	20.669437
1163.295863	2.992100	3.797600	11.363000	24.464938	-0.000144	20.676675
1164.297302	2.984300	3.798500	11.336000	24.486381	-0.000144	20.673058
1165.297678	2.999100	3.798700	11.393000	24.478991	-0.000143	20.662798
1166.294837	2.992800	3.798200	11.368000	24.477599	-0.000143	20.693172
1167.298759	3.016200	3.799000	11.459000	24.486603	-0.000145	20.672806
1168.296638	2.993500	3.799300	11.373000	24.508217	-0.000144	20.674577
1169.297328	2.976400	3.800000	11.311000	24.492278	-0.000144	20.684665
1170.298882	2.984300	3.799400	11.339000	24.479514	-0.000144	20.664271
1171.300244	2.993300	3.801000	11.378000	24.489188	-0.000144	20.667339
1172.298913	2.987700	3.799000	11.351000	24.482447	-0.000145	20.672903
1173.302240	3.011100	3.801100	11.447000	24.467148	-0.000145	20.674150
1174.299306	3.007300	3.800900	11.431000	24.465483	-0.000144	20.674376
1175.300686	3.009000	3.801300	11.439000	24.481254	-0.000144	20.665068
1176.299994	2.989200	3.801100	11.363000	24.495629	-0.000144	20.662421
1177.301972	3.012600	3.802600	11.456000	24.495551	-0.000146	20.668981
1178.299952	2.990600	3.802900	11.373000	24.478587	-0.000146	20.678041
1179.299611	3.002800	3.803200	11.421000	24.499507	-0.000145	20.683383
1180.303415	2.994800	3.802300	11.388000	24.513656	-0.000145	20.664860
1181.299969	2.992700	3.801800	11.379000	24.491695	-0.000145	20.666534
1182.300323	2.979100	3.801100	11.325000	24.504154	-0.000144	20.686624
1183.304490	2.992300	3.804200	11.384000	24.500151	-0.000145	20.674546
1184.300655	2.982700	3.804500	11.349000	24.493281	-0.000145	20.670972
1185.301220	2.988300	3.803200	11.365000	24.511938	-0.000148	20.632787
1186.302723	2.999300	3.803400	11.408000	24.500420	-0.000144	20.666754
1187.301491	3.006100	3.804100	11.436000	24.487460	-0.000145	20.668450
1188.300634	2.991700	3.804500	11.382000	24.496908	-0.000145	20.674137
1189.304067	3.002700	3.804100	11.422000	24.487081	-0.000146	20.672337
1190.300262	3.013100	3.805000	11.466000	24.498871	-0.000144	20.663776
1191.300279	2.998600	3.804500	11.409000	24.474367	-0.000144	20.656735
1192.304844	2.979500	3.805000	11.338000	24.501928	-0.000143	20.647402
1193.301039	3.007000	3.805900	11.445000	24.492824	-0.000145	20.665296
1194.301245	3.002200	3.806700	11.429000	24.492026	-0.000147	20.671134
1195.303940	3.000300	3.805700	11.419000	24.499115	-0.000146	20.660702
1196.300473	3.021600	3.807200	11.504000	24.489061	-0.000145	20.657253
1197.301183	3.004200	3.806000	11.435000	24.501997	-0.000146	20.653161
1198.304344	3.006200	3.806800	11.444000	24.522118	-0.000146	20.653434
1199.301152	3.006100	3.807600	11.446000	24.525745	-0.000144	20.652806
1200.304005	2.997800	3.806800	11.414000	24.517238	-0.000145	20.664661
1201.306834	3.004600	3.808900	11.445000	24.524650	-0.000146	20.644119
1202.303956	3.007700	3.808700	11.456000	24.523357	-0.000146	20.672698
1203.302402	2.997600	3.808500	11.417000	24.535766	-0.000146	20.638677
1204.305370	2.995100	3.808700	11.408000	24.517833	-0.000142	20.658145
1205.302536	2.989900	3.808000	11.386000	24.523576	-0.000145	20.646362
1206.303236	2.986500	3.807600	11.373000	24.546883	-0.000145	20.665955
1207.305018	3.006000	3.810300	11.454000	24.525914	-0.000146	20.647285
1208.304740	3.000600	3.809200	11.431000	24.531284	-0.000145	20.649354
1209.304734	2.989600	3.809800	11.391000	24.524568	-0.000146	20.647831
1210.309959	2.985600	3.810600	11.377000	24.520537	-0.000146	20.655167
1211.304372	3.005400	3.810100	11.451000	24.525832	-0.000146	20.648626
1212.304630	2.988500	3.811200	11.391000	24.537374	-0.000143	20.657837
1213.304842	3.014900	3.810700	11.489000	24.534238	-0.000145	20.654690
1214.307550	2.991700	3.811500	11.403000	24.542516	-0.000145	20.640708
1215.307280	2.998500	3.810900	11.428000	24.536845	-0.000144	20.655883
1216.308264	2.993000	3.810200	11.404000	24.551893	-0.000144	20.655808
1217.308205	2.995800	3.811200	11.418000	24.547811	-0.000143	20.663093
1218.307389	2.989500	3.810500	11.392000	24.530004	-0.000145	20.643327
1219.308826	2.991600	3.812900	11.408000	24.557732	-0.000146	20.623730
1220.307672	2.990900	3.812200	11.403000	24.554521	-0.000145	20.637106
1221.308420	2.997800	3.815100	11.438000	24.543952	-0.000145	20.647840
1222.312342	3.010100	3.814400	11.482000	24.534999	-0.000144	20.654504
1223.308153	2.992900	3.812200	11.410000	24.553576	-0.000144	20.649435
1224.309747	3.003300	3.814900	11.458000	24.555814	-0.000147	20.651681
